-2.1678335010718315,-2.530021155458754,-2.4619085359185107,-2.074570506998257,-1.4180321875830937,-0.5612637201970183,0.4081874601029378,1.40762179667769,2.380737555353283,3.2903013181106995,4.081861124670889,4.653775532750652,4.8703725634284165,4.615876632425652,3.8483239862790795,2.615707111331679,1.033321762321024,-0.7505907593650691,-2.5780590905958274,-4.291024718903776,-5.737304627416507,-6.783589701175955,-7.339787678010783,-7.383816583501877,-6.9628422960679215,-6.159818483543587,-5.0493635913178725,-3.683186711824237,-2.1177975684433714,-0.45479431328490316
-2.9255106650551346,-3.739979558587216,-4.09504944631373,-4.003640309899383,-3.4979886421744095,-2.6990882775363336,-1.763218606198916,-0.8089823442538819,0.1152767854909594,1.0024746885939697,1.8294858175238575,2.523606357199285,2.9737365555770587,3.068516940530478,2.7344609941364495,1.9591632114736215,0.7950033671316123,-0.6548327185366929,-2.2578069802386196,-3.868026148165641,-5.334721063942851,-6.5134178827037985,-7.286616486489354,-7.586466951292682,-7.405532275518573,-6.789207341355539,-5.814738030312612,-4.5678292156001525,-3.1273043447656255,-1.5634111141932596
-3.356250315838919,-4.011115306894936,-4.206821219635797,-4.08628331249522,-3.7402219136446444,-3.2459009362382365,-2.6329641795640684,-1.874705039734825,-0.9313419231864907,0.17949155119591897,1.340739285539837,2.357253976511366,3.022226700927274,3.180212782976091,2.7571539866601906,1.7647927611129754,0.29820081527954023,-1.4723860112451952,-3.3283229709218634,-5.0493337387232815,-6.459595369427216,-7.4505261121166635,-7.980002530979561,-8.063430827715445,-7.760993225453972,-7.151056900574788,-6.2927439596320704,-5.205877792732282,-3.8922980650057015,-2.385003866341704
-2.2977979121084955,-3.040781137816878,-3.345410716608102,-3.327283550159007,-3.0592136579984643,-2.630207896932924,-2.1107968566886046,-1.5174832464916759,-0.8207569656281943,-0.0011960947892786233,0.8870673694763037,1.696764036989482,2.2298379431909714,2.314464109006496,1.8710457234915738,0.9383712587233506,-0.3422629964917548,-1.7739591008928761,-3.1656189765040588,-4.382270426134733,-5.359533620025852,-6.082169522030428,-6.553067911874167,-6.774739851380681,-6.740312578612766,-6.423438458683471,-5.7744837033176974,-4.742913371188568,-3.32812761950693,-1.62596249057583
-3.0212487811686763,-3.9752823349886244,-4.631307873608923,-5.014320813559555,-5.002447357645542,-4.473099914303675,-3.406284686762298,-1.9423135467223152,-0.35449392353011855,1.0511009071902389,2.048262759316392,2.5513988387731317,2.6012071915293076,2.302202824761941,1.758799220714644,1.0384675117360906,0.16181423286455077,-0.8895525596137491,-2.145668056710147,-3.597654225223252,-5.1452243287843835,-6.588350754676703,-7.688197570218609,-8.261277054196814,-8.23662370848139,-7.642395487830971,-6.553745812379323,-5.05612045053906,-3.2452103852422525,-1.2432739457847801
-0.3565761523205923,-0.2457148760960097,-0.32225541419687515,-0.4652842540625647,-0.577464520891175,-0.5916836282653981,-0.48046990230408243,-0.25678734918574586,0.021279713993504812,0.24593765471552198,0.2840521480102458,0.04291389595962114,-0.4575829061710207,-1.062764121360129,-1.5362084014747541,-1.6594274299166822,-1.3201276417844294,-0.5457467975005984,0.5202822478390012,1.671530942388738,2.692261218462344,3.4016413350661576,3.6913649250856175,3.5536776241749033,3.0815984790084427,2.4256354676695793,1.7239599135828607,1.054246594808978,0.440102318674064,-0.1088399494243042
-3.876574065217512,-4.674824147900598,-4.8045250107472155,-4.441596040987941,-3.744434397250366,-2.8623242082368288,-1.8891154372984877,-0.8657727381326878,0.1691204480592353,1.1348972326090814,1.914164295301724,2.3953739555751064,2.50795534299637,2.230151051233615,1.5858770433984681,0.6438077405799126,-0.49322876975497887,-1.7192536136306849,-2.95851272687015,-4.169161031848963,-5.308829508639587,-6.293047263013474,-6.99126469152273,-7.273000920455333,-7.066836721368268,-6.3824191944103505,-5.284738923832003,-3.853299806755979,-2.1612794395313806,-0.28284924949576196
-0.9045162757245278,-0.9888637715964774,-1.137153955319996,-1.4843256811276353,-1.9411500473320942,-2.2536892065080707,-2.1565817035402812,-1.528520360981637,-0.46438276974782994,0.7614804142226106,1.7995275239751776,2.332664244225373,2.1540309855817372,1.223173689930646,-0.29210435056636225,-2.017774474143293,-3.4585022890980532,-4.154886019705791,-3.8444025091856355,-2.555354088251375,-0.6097820232854101,1.451241399405397,3.0032013809544837,3.5185726987887334,2.752750227719284,0.8658007837386497,-1.5878034394458502,-3.8194369558870456,-5.061985160288728,-4.821317823343428
-2.667213649953258,-3.257762452906115,-3.372067314055598,-3.143312871389883,-2.663439746304241,-2.034319477258078,-1.3401965666708535,-0.6262945808321099,0.09480918004091476,0.8153669869992599,1.502742679499055,2.0848098460183477,2.4605497240362815,2.5332142646935547,2.2443534943709946,1.5842539167791507,0.5810332063567845,-0.7050119865223792,-2.1691226156924728,-3.653267764631676,-4.968882126985646,-5.94964866935031,-6.503339094541209,-6.630422813324857,-6.398052947174085,-5.884087675049203,-5.125576102486259,-4.1068131627171365,-2.7961643170696378,-1.205233303121693
-0.6412751699658139,-0.09400158396075664,0.342250930724791,0.6885415477061249,0.9125293490486669,0.9842141807315764,0.9218769179133031,0.79754312614935,0.6929004023362774,0.6417865040040679,0.613850659536539,0.5572955495612113,0.4601051151750446,0.3732167111302822,0.3815208592229469,0.5568712623349855,0.9297436743553026,1.4837256888534318,2.158234341357013,2.8574012708203984,3.476256110832009,3.9406847782869807,4.2321763139268445,4.3707299626332325,4.365737355736491,4.179257811785986,3.741547586063046,3.014201885782026,2.049229163813918,0.9877400055231851
0.3532390186082885,0.3189294955855301,0.09037216919285183,-0.37804551400872743,-1.0059779684721486,-1.611420315081722,-1.9694667179373062,-1.8846179300576378,-1.269664292626457,-0.21925046063808779,0.9627843276469722,1.8327380111492333,1.9757348474011756,1.1998572722092198,-0.34966585954835133,-2.2162435210787748,-3.781618239483201,-4.476036140152486,-3.9760887999628167,-2.325938355684505,0.05871359912584659,2.501493582756028,4.24942145405816,4.682082402154802,3.5089186045441587,0.908030900257447,-2.4606270239498196,-5.6127923417995795,-7.5373228780350425,-7.5306687034066435
-0.8846776133113144,-1.2657826771499616,-1.7638545046291165,-2.3427893086404374,-2.9256602418668387,-3.4000648880246183,-3.642702628068481,-3.546180593499729,-3.0431243269718804,-2.127687779391212,-0.8693038497673192,0.5878942467258266,2.044409620791933,3.287353748407858,4.150404367548793,4.566020645145549,4.573700476201961,4.27406883004253,3.765111490039339,3.1111683037664313,2.3539368055127436,1.5270051494442327,0.645153567780597,-0.3086185339825252,-1.3595892718608211,-2.4877393971138027,-3.593231021637556,-4.516091437719182,-5.099050251107601,-5.254237753613131
-1.676033478370588,-2.734049724343234,-3.552401122222274,-4.108886022485166,-4.269445033980176,-3.9437829361869317,-3.1651492315571352,-2.095078724119216,-0.9509743731495753,0.08726677257798487,0.9238888814499026,1.5266977814941924,1.8739003288408924,1.9170657627561563,1.5840098906863378,0.8140839335872914,-0.39923828709207954,-1.985485487389844,-3.8077170976844825,-5.696575419565929,-7.482293335998452,-9.007411897269748,-10.126276575718418,-10.710007310879709,-10.666639609934654,-9.968757929828485,-8.67209661941125,-6.911925359202924,-4.873759656291297,-2.7468017636378854
-2.325232187000703,-1.715070966822517,-1.0497680847872142,-0.3851419507501088,0.08580510188386509,0.1583976479831934,-0.24336739319087386,-1.0071894056108903,-1.8930088431891359,-2.659087037257421,-3.160029479873471,-3.363778580553313,-3.304591867978286,-3.0280989320201797,-2.571781148754912,-1.9800301426523985,-1.3192669750940724,-0.6660849981515915,-0.07779382113574412,0.4232994866705527,0.8366787763802417,1.158530574398457,1.3723759074721131,1.4623654264184611,1.4306445915176838,1.298578420642019,1.0915165295222404,0.8217974338922873,0.4820956010815784,0.0539796170353074
0.5670224992955827,0.8673027573120337,1.0160904273903195,1.0932127784820125,1.1405907580579646,1.1488461412046622,1.0545530807589687,0.7846005970575227,0.3242371630008025,-0.24923429999998226,-0.7936903046992188,-1.1618498923214484,-1.2517623383265335,-1.0336945899489698,-0.5574404283873632,0.06017885946852508,0.6689192119726411,1.13182239913286,1.3720876055756217,1.4042766951855858,1.3277500456274922,1.271378184646181,1.3160168486214672,1.445644793186824,1.5557893679135355,1.5063732024987333,1.1887262646596277,0.5801372385387535,-0.2382782456437933,-1.114518390006829
-0.6368239879870642,-1.4348704839486035,-2.182659708195139,-2.8155231593090058,-3.3066045560813726,-3.6253904512087205,-3.7275888645331836,-3.571230355215083,-3.133272092584024,-2.4212148751478475,-1.4862606229880297,-0.42642768460124225,0.6399337841861387,1.620687032436344,2.476776992237223,3.202320907237308,3.775576153379059,4.126934927031355,4.154265971750231,3.774119320166207,2.9698139882219,1.8050403845101484,0.4011262371210378,-1.1002554814285648,-2.5655527154375077,-3.88013015757851,-4.946116622768149,-5.676281313243264,-5.992643008348631,-5.836811924908224
-3.1320191308042964,-3.6706900111461307,-3.78052577140853,-3.630110417738297,-3.3501413486689358,-3.053592916509108,-2.7662156973837893,-2.405679620527816,-1.8569002175112164,-1.089678428346306,-0.21350468272948442,0.5753488781034928,1.0952895004083933,1.2410902605388987,0.9816032819880098,0.33363699266152647,-0.6517653742782212,-1.8916348949712307,-3.2733752590887164,-4.656540535692709,-5.876016576850631,-6.761745825928085,-7.182591341733576,-7.093031402034073,-6.545352918166671,-5.650804310337048,-4.517359644084866,-3.218310956760188,-1.8199646903833884,-0.432798416049611
-1.9414594779960375,-2.349736866023515,-2.4414321593955153,-2.275836367143744,-1.8451748294323136,-1.1807917938625823,-0.3759003333224189,0.43472012727322085,1.1262721714026145,1.6275623073187737,1.9242206776773194,2.027448457312226,1.9387224335653546,1.6330431708096171,1.0666858667472838,0.2066112302722023,-0.9321403249956306,-2.2682014232811882,-3.674274313762626,-5.020804787905557,-6.203982983662521,-7.141233512055762,-7.757101182004177,-7.984538333024728,-7.775352546751019,-7.104884490606929,-5.979136889581238,-4.455568935396084,-2.658452072614172,-0.7607994376010061
0.2746993276738976,0.6369948174314358,0.7618450533528198,0.6630758120004902,0.3592442820368027,-0.10408096950192157,-0.6579713140704392,-1.224109996014043,-1.7245562595846051,-2.085477240402824,-2.247022097717306,-2.1844913475250634,-1.9245693225194713,-1.5369966396938948,-1.1056022992745647,-0.7020635461583595,-0.3761743290557006,-0.15436145135479304,-0.03334588918187792,0.030137812735492875,0.11949722449069311,0.3338856122690179,0.737594281221873,1.3038138473314345,1.89131193198955,2.285087484507572,2.2939280616990905,1.8521339974973121,1.0568760779805024,0.11126447582843946
1.5394513536491385,1.0847671344003627,0.5254286622266967,-0.06380455700455401,-0.6090471268853972,-1.0363464941404468,-1.285205508114942,-1.327499944817449,-1.1715854793303047,-0.840339200292101,-0.3373031398208154,0.3626427569992961,1.274444380096622,2.342839476801799,3.421857214739621,4.321215945784985,4.880101858655982,5.0086745338822105,4.682319997984772,3.9214583595603476,2.7872823733013203,1.3869737030600429,-0.1379226877422488,-1.6472881491523972,-3.037746926960998,-4.246258559139262,-5.218664317538901,-5.875157954983937,-6.111522990565364,-5.844958342826588
-1.7612315237455045,-1.1646592179851913,-0.5456146063376611,-0.2530243203528962,-0.4412443430420457,-1.0142215934392682,-1.659130656853419,-1.9683737036384923,-1.622150278119092,-0.5588172869538326,0.9578307869562537,2.4229223223640015,3.2944602489793335,3.222288127579855,2.2014817898262122,0.5924482264028463,-0.9945654672282922,-1.9110032722277683,-1.710436894714262,-0.33464586181307543,1.830267294557061,4.060926387873907,5.536523820296607,5.627483908993823,4.1295251548880145,1.3598873022477818,-1.9185877528462627,-4.722800668189972,-6.155478278351506,-5.697289267597845
-2.5262399754130445,-3.6381733850543485,-4.379318398537003,-4.764820258879375,-4.743361510719369,-4.2926544311003765,-3.4426935876189737,-2.287814723018357,-0.9819537706219963,0.29007499211504406,1.3529130888483805,2.070146470461274,2.353401814955484,2.1603764292237138,1.4959438232350366,0.41999479188971095,-0.9482923658798991,-2.4448547545869417,-3.8976932324857425,-5.169304399319081,-6.17787500436356,-6.886664585853337,-7.277334946951179,-7.33056677294081,-7.02341643932332,-6.338981914467622,-5.279902244851898,-3.876803860621749,-2.186991991743517,-0.2913130523072883
-4.861327499762675,-5.145082695999797,-4.9092383521884315,-4.296333941507412,-3.384461276123116,-2.2854610663225534,-1.145750905091945,-0.10688107219488385,0.7370796033635367,1.3524581239682174,1.7474947660626765,1.9423390600272712,1.9414020498664275,1.7138735514448034,1.1958271933167952,0.3280220090523833,-0.8837339802730602,-2.3316968619268796,-3.8352111307411545,-5.226983210213344,-6.429394222703606,-7.449010399470005,-8.286868475123244,-8.847300394081806,-8.939858395782567,-8.385353342905352,-7.137731543027137,-5.31917012409069,-3.1502097123003336,-0.8525748057103086
0.16385517619922169,0.35453205964808043,0.3874211817305966,0.12590060359237232,-0.39202889186173,-0.9879900747867452,-1.4167844639067986,-1.4513130581373954,-0.9669548198972047,-0.011304753248628063,1.1697070848599316,2.1799771440283626,2.602335186780169,2.172586864157048,0.9215811822429112,-0.7975279727452538,-2.427291405011184,-3.4147324672948143,-3.4061927373170895,-2.350600160922532,-0.5051901533000984,1.6209680518253813,3.3712310784690116,4.1102909542803,3.446664212857818,1.4241941246883703,-1.4309183336578273,-4.255513888880449,-6.13059392866309,-6.385004813217792
-2.5174319305581836,-2.1201363058244755,-1.8063460390219417,-1.5821530178935344,-1.4585105564700407,-1.446311491159656,-1.559503986362183,-1.804104169851245,-2.1557007179879837,-2.5494387185225853,-2.9028843912351023,-3.1581359065558323,-3.3009853002608276,-3.333869445354088,-3.23264535294142,-2.9410865309441276,-2.4173298851037384,-1.6878488238792166,-0.855103160237177,-0.05183378030112962,0.6181809707941122,1.1114520609511365,1.4382771964206824,1.634604050968659,1.733098454441235,1.7476262994910625,1.676775459166173,1.5209512309099937,1.2967107880067625,1.0321151131436725
-1.3718056226456437,-1.0057096797846148,-0.7419989834252797,-0.5319217377958697,-0.42677690423384085,-0.5267297631655719,-0.8956785782740334,-1.4904321289074054,-2.1583967220791784,-2.7068114983867897,-2.990391489973838,-2.958124453137863,-2.6433083630788894,-2.1226641154615544,-1.476147393137527,-0.7643956621416669,-0.029616322343449575,0.6844883735076709,1.312818484946596,1.7724061861340485,1.9941437969371274,1.9589411964433792,1.7050097795233752,1.2969981221576559,0.7839205195837906,0.18186564551706752,-0.5096172487278754,-1.2785177207560503,-2.082848189712072,-2.8522802588651035
-3.035948265124413,-3.7768631120616862,-4.0701641337855055,-4.01963872903148,-3.6881561053485328,-3.1431018430697653,-2.4285488457380326,-1.5641793873078158,-0.5894028121356255,0.38916777701163446,1.205040707037745,1.6999492788213257,1.7951415489689488,1.5056980502427937,0.8957198912795351,0.02516531008332651,-1.0638838834686637,-2.3210300546686193,-3.660898635079324,-4.969916373525957,-6.13943681116319,-7.08776778997842,-7.747293168384176,-8.034999005561534,-7.847625107878356,-7.100420096867377,-5.787098734345087,-4.02166119590632,-2.0360441499749817,-0.12541217527739368
-1.7671001599926635,-2.427766917337487,-2.743276483562201,-2.7487247296573427,-2.3975865422941385,-1.6834875271531229,-0.6709414695723224,0.525253323458108,1.7710694229403867,2.9140942955036526,3.7704115549321093,4.150668464339271,3.9366258183163616,3.1468968163747593,1.9234259987793254,0.4462641154319523,-1.1443555860268675,-2.756512619023023,-4.303789757473781,-5.675997638305271,-6.7566917128053365,-7.461886384583091,-7.757656318054065,-7.647760509926003,-7.157602987247568,-6.334735292915435,-5.251529438197938,-3.98595581018408,-2.591474894907725,-1.0972848110975244
-0.2935765278386422,0.1305030047707129,0.20165635098685172,-0.007327997392439806,-0.3549713155613803,-0.6668613917040415,-0.8128237361763104,-0.7665628232650239,-0.6095127555937837,-0.47587573839079317,-0.4702791111754907,-0.6080334352183392,-0.8157562177317726,-0.9881958491156171,-1.055788432944146,-1.0137069205106384,-0.9003286314314614,-0.7543159628603517,-0.5872553812718442,-0.384461854246926,-0.12259341804235135,0.20956102001933474,0.5917746886773554,0.959040589826768,1.20756401249572,1.2325307358276656,0.98738606229828,0.5248520402712302,-0.022533453227774947,-0.5215872314609709
-0.5973554559976098,-0.6416214637268485,-0.7875004485908284,-1.1703281796837923,-1.767254109627768,-2.3893628920311087,-2.743725339872324,-2.5498982722705064,-1.675565131704997,-0.23366459680889634,1.4147707711130497,2.7635320452068144,3.328872374984502,2.82480901518006,1.2980790795636976,-0.8280070534911264,-2.8508275455114616,-4.025475393604559,-3.8518022813582693,-2.276792390207972,0.2764212077543669,3.0487765025467066,5.186621779836821,6.004210935048361,5.199360889809098,2.9666569858122083,-0.03131855884473955,-2.8451169277377284,-4.536725103218231,-4.5038085138904265
0.14500517379019628,0.7289914489730598,1.1073588404405446,1.314173267712428,1.3473078425649585,1.189445386126836,0.8421841520835684,0.3495009532926114,-0.21393940332937095,-0.7744784505098916,-1.2734168107103425,-1.654466251216125,-1.8548045600561687,-1.823260219139569,-1.551104235235012,-1.0856106354716395,-0.5165509932382113,0.052730323416820456,0.536328675320206,0.8901108685222129,1.1180373091994324,1.2515278261013618,1.3130714731129904,1.295028203018401,1.1739381642393019,0.9447992981737573,0.638813847169874,0.3058451411429449,-0.021272206053639275,-0.3462741366913412
-3.358456778365059,-3.903026906607202,-3.947100409420818,-3.680597786892403,-3.2479604600461522,-2.772951716432536,-2.3191032579925053,-1.8663006747848085,-1.322902189102122,-0.5851150446521844,0.3688484364812088,1.4063055264153193,2.2559876436425403,2.619240920957251,2.3044527979964506,1.298469598243105,-0.24938520381232782,-2.090996399417911,-3.9467425204522057,-5.565995156690144,-6.782149865003806,-7.542781826397709,-7.887407015963659,-7.8774221312396655,-7.525949866459012,-6.7828570119526965,-5.59012534934123,-3.9658844141429523,-2.0491761302973166,-0.0684126987087954
-3.875628313298209,-5.398801232095219,-6.359343598029026,-6.587684458759801,-6.010087646233135,-4.775909056145893,-3.194280039661218,-1.589692554551291,-0.17951302039495348,0.9571747331613741,1.8263822827284502,2.439467820454982,2.7604609545918035,2.70551643182376,2.193078621025103,1.2142213663239003,-0.12972640703796262,-1.657285867377836,-3.18318732747722,-4.579726136288341,-5.780740488191673,-6.740608878738648,-7.396508474435984,-7.67061738786211,-7.5060104112242625,-6.897929313997664,-5.892306408340867,-4.561715020251133,-2.988961518268318,-1.2707586874264976
0.37486188832858025,-0.44495346967967203,-1.3528926654054734,-2.150022740607338,-2.6931471899479327,-2.952630288216884,-2.9918357818099945,-2.88169489876833,-2.6210505961614583,-2.1309459086254683,-1.3287790505281913,-0.22235614059129027,1.0508294372704263,2.26955626579906,3.225477718355516,3.8010721466816353,3.9815499393397364,3.811075312280424,3.3444607753232067,2.6337175566191147,1.7431834418312313,0.7590408598294596,-0.22524813931908128,-1.1326355218721693,-1.9115910581682463,-2.53031873100639,-2.975698806158371,-3.261082720591248,-3.4176820327983117,-3.453596197515181
-0.7327105600863864,-0.5257240080387212,-0.4621984112297199,-0.45325748735315163,-0.4445273558916617,-0.4133046963607474,-0.3624496012559272,-0.30432144610874423,-0.24622850102964622,-0.18717615070242477,-0.12431487765820382,-0.06264866131040936,-0.0227835830795573,-0.038825166009853085,-0.13919094307551938,-0.3187274828171949,-0.5254917597965322,-0.6755650584799906,-0.6842790402087069,-0.4936424034844791,-0.08796958033331603,0.5007771002023347,1.1986145930438528,1.9064039185097463,2.5204058000224423,2.9470484494681326,3.1103371277070417,2.9567710446350266,2.4629121740593733,1.6484713543746414
-3.6924032775464513,-4.102855104046545,-4.16776181275338,-4.0112156215376915,-3.702223991087785,-3.2948409946074513,-2.7836355875100063,-2.1008111088393933,-1.1850041809528564,-0.07357212420236603,1.059045210536248,1.9539163690084507,2.378553343845025,2.2222284220403328,1.5198124791948568,0.40836960250322957,-0.9341092888165319,-2.3298568367137062,-3.6273417034840056,-4.730791755213201,-5.622627379860787,-6.346897464096861,-6.948843420547393,-7.412352261278969,-7.644932052553149,-7.519219552207508,-6.937225187162941,-5.876901593016601,-4.402695766949151,-2.6459086890715184
-2.9404439648434217,-3.6499096343264825,-4.049332212991547,-4.219865044842227,-4.153808593562585,-3.8446677105441815,-3.30758719658224,-2.580734906630698,-1.7202539689357097,-0.8005771610506667,0.07783126867485501,0.7849104241534635,1.1792995689576729,1.1509329079196715,0.6637368602159224,-0.23106591928257036,-1.4162170618713554,-2.7461671800518217,-4.082695618146271,-5.317668042822653,-6.3742246996586385,-7.186046569039943,-7.675837083463236,-7.763106732769756,-7.404405676076987,-6.629853572307027,-5.536381544555406,-4.238950936123988,-2.8208064459813103,-1.3215504182094884
-0.19360882994891987,0.5660736699212243,0.8870433260403334,0.7398274337674954,0.1860011321626576,-0.6003100229395445,-1.3795158898248328,-1.9298927217759878,-2.1258167337166904,-1.9761010200148772,-1.6028869971948347,-1.1667615547000068,-0.7795236049743756,-0.46314105765050306,-0.1783686849911199,0.11737393607299662,0.4446498616131822,0.821923383398637,1.284375958155794,1.859556966672113,2.518025017476653,3.156722652590468,3.642896379298211,3.8828042754357677,3.8556370656721777,3.592346161737943,3.133057190504222,2.5076763291593296,1.7491702494057657,0.9138748969066994
-2.3835684181222674,-2.7864119618089505,-2.8160515840926066,-2.6451347562954535,-2.3429791429440887,-1.9170102275891425,-1.3314365451572474,-0.5509386850012503,0.4136446732948857,1.4770770930996362,2.4810708602113003,3.2344953379436636,3.582264535200857,3.460828661655746,2.898117428168786,1.965591667625557,0.7366746216542182,-0.710779789260054,-2.269684409838944,-3.8033414921657234,-5.177721446746595,-6.287391790098717,-7.043804115245783,-7.347932603156401,-7.098204267576089,-6.24728742453095,-4.85963066855064,-3.111539932820179,-1.230233601230326,0.5774332125117176
0.05619202754348973,1.0003812115394337,1.9160141496474627,2.644351035109748,3.0099620186181437,2.9123043148310823,2.361953675911289,1.4708456397874434,0.422786974605576,-0.5601246393880797,-1.2615418850383715,-1.5329550210408567,-1.355632766735026,-0.8608754731326959,-0.2783872732955187,0.17239013411693038,0.3878143946286937,0.41429054255784836,0.3870060831329209,0.4195555785822286,0.53007297141477,0.6554781412571207,0.7260676480454504,0.7256498995779135,0.6889467172609285,0.6507387702952819,0.5981650747935618,0.4673938921833946,0.18837012108858103,-0.25502664292960897
-2.9444853743244996,-3.5514668144525863,-3.917077783286312,-4.060000226997412,-3.925994861986504,-3.5276442419632685,-2.948452268921387,-2.2828492162794722,-1.577659373306377,-0.8253075490363009,-0.010543188023849792,0.8292873777123335,1.5763555488313914,2.0544413634358665,2.0862039657517495,1.5593099225120535,0.47734111811082514,-1.0261746691346256,-2.7213569190802853,-4.348323561396091,-5.682177046957688,-6.5704563528214,-6.941423009414204,-6.796988084501496,-6.201011069655087,-5.263113735483177,-4.115013095996337,-2.8830833977512604,-1.665971628005517,-0.5223155359257574
1.1852017122968528,0.7613043584431886,0.2857863347199815,-0.13635919086394854,-0.46709374499807055,-0.7262082708826787,-0.9344108045123225,-1.0596185966473484,-1.0147416567430114,-0.7057249643463663,-0.08946605033537458,0.7946774395624485,1.8303790259188508,2.860479567780506,3.737817640761776,4.363473441083153,4.689040996986379,4.692484042717824,4.36585604590366,3.7335569320089292,2.871664621650718,1.8891287938561272,0.877310765420031,-0.12422344628673504,-1.1135499088777916,-2.0840534882156474,-3.0004936116480216,-3.810925439780961,-4.464052941758064,-4.8984226537971445
0.8759107702015075,0.21586762507315505,-0.5357388319577694,-1.2790359195009509,-1.942523880312786,-2.4605961170953026,-2.754925074179888,-2.7393184165342133,-2.349178687233623,-1.5788308010322578,-0.5005571215316227,0.756249139790742,2.060638833056091,3.3292718713189133,4.5233319289467016,5.593972228899858,6.433967447952746,6.8942470348764395,6.859323111428669,6.313968072411704,5.344353740958256,4.084124776639645,2.6598438144983776,1.1715402579781102,-0.2967497651223463,-1.6566654988249234,-2.801390696216341,-3.613410721944664,-4.002344452681461,-3.95149501351927
-0.9675895236888887,0.009741187182223082,0.8449845598177641,1.3245398950665415,1.3712629071979794,1.0982825584302174,0.7324844919788027,0.47339476158974375,0.3860020922507076,0.3937996888558085,0.36196377108089317,0.20205614403818273,-0.07267774124767445,-0.36898510871106616,-0.5845844820888068,-0.6686225556071526,-0.6278985368123429,-0.4889635060631877,-0.26580642475946176,0.03255177272445242,0.36992198883680494,0.6693682840865111,0.8413411275207151,0.8345743013695328,0.6676321866912502,0.4131880033366848,0.1457869732216277,-0.10502415605608495,-0.3590588763702468,-0.6486367653122189
-3.438446391209549,-4.03162040286861,-4.203945861869372,-4.1068532726131135,-3.7836301582183207,-3.2307134044657086,-2.4388017293530098,-1.4440794743452503,-0.34967840211452694,0.700512250654497,1.5715170301065517,2.1684061665446706,2.4295390926652267,2.3018694837743676,1.7352011464051424,0.7111062620458511,-0.7145854163460398,-2.392387029834637,-4.101881146942622,-5.606145176916758,-6.711004267745833,-7.304595322225554,-7.367387420441418,-6.959271033991891,-6.195157880777401,-5.211899760746239,-4.126261970081577,-2.9984617098910853,-1.8277706975952748,-0.5902573862446046
-2.4769674974051896,-3.1756444373745825,-3.6171704708815,-3.833924321918694,-3.7881683149848087,-3.4589316745605085,-2.840368720565309,-1.944041632610045,-0.8188819296542659,0.4324898193947937,1.659565028442382,2.685590886891915,3.3305218248023363,3.4374227357882976,2.9154575269549827,1.7923026625770269,0.23616063752267447,-1.4911089567871252,-3.1371776615679585,-4.550376436094083,-5.692470743799254,-6.573406576318926,-7.1757378491166355,-7.437842683812417,-7.3009990919346395,-6.7615115374730115,-5.869760808293328,-4.680902881785864,-3.217403363253973,-1.4905594508998115
-4.039511861984685,-4.977137469878414,-5.253056926570517,-4.915236422370233,-4.025216811618144,-2.7446546368759424,-1.329511797348664,-0.07372479824914546,0.78736224718736,1.1634481442828115,1.1238276014273556,0.8261619334673131,0.41223330333880104,-0.056025360082874176,-0.5886072750895353,-1.214970722729922,-1.9383094563755439,-2.7263277072856207,-3.531401708518109,-4.314462309167372,-5.054004448289104,-5.737054007265985,-6.337280677731465,-6.789842691669476,-6.98101518937678,-6.77408003122642,-6.0730496241764484,-4.88918924950849,-3.3603094071283977,-1.7040180074749607
-1.6889726716483362,-2.497299692195802,-2.866015213276348,-2.9846304033521287,-2.915056503868073,-2.6430054417749953,-2.1255414820852696,-1.354339939830886,-0.3918288110688752,0.6372151698259604,1.5854138478451538,2.326576359625592,2.7777985653098596,2.8915619035569264,2.6357863944442164,1.989986716856071,0.9647761438933296,-0.37750399420178593,-1.9254680180599837,-3.541594909396977,-5.079948726943734,-6.38510577822258,-7.290841998064724,-7.647668293146672,-7.378507537608403,-6.523089987973848,-5.229981796466049,-3.6958932803388924,-2.0945652248525324,-0.5418576815087524
-0.09655933317596611,-0.47686360575982195,-0.9274302509309464,-1.2854676851972662,-1.4555754716014957,-1.422661164328304,-1.2149744351386276,-0.8606981969904606,-0.3804694224120382,0.187942612408583,0.7751889753416241,1.3025500780107626,1.7202759675589943,2.025906326672155,2.255075049813764,2.4622496667063314,2.699133085689063,2.9831423859803157,3.2631223442460318,3.415725781717583,3.296500615126869,2.820847177484404,2.014498529029021,0.9953430948550708,-0.0927738847399251,-1.1390605793858746,-2.080968771321367,-2.8823761008522624,-3.5069842463773364,-3.9120161214194833
-1.0314751007909397,-0.4612463831412802,0.13988658241425883,0.49501855440926096,0.48361339409454135,0.19215410541539157,-0.13781812742960142,-0.23743766793654408,0.05728185414047976,0.7290050699448765,1.5762238880883495,2.2726488794117725,2.472044562557992,1.9381875995504605,0.6643304186563279,-1.0673659582670616,-2.7289687960233775,-3.7026550750661777,-3.509910722407192,-2.025755623484883,0.42544240522895377,3.1510086473389487,5.320753073625504,6.251600948796663,5.636249691368782,3.6400069247701254,0.8457566672537262,-1.9198081877009203,-3.8176716046115566,-4.2286794514627655
-2.123892944118832,-2.478796827159206,-2.5708411140987733,-2.5371018124680638,-2.3847523221483513,-2.085865775876959,-1.6288415836697745,-1.0519214309089142,-0.44097775072430667,0.10493844110404826,0.5141544083431012,0.7584242695087664,0.8349020363525754,0.7354377965002714,0.434785951285498,-0.09304871161034423,-0.8510000896538648,-1.8123327528219753,-2.9316257897137814,-4.151090302962922,-5.38673741150542,-6.509316932128406,-7.353209577729741,-7.7668160839778135,-7.676887793510763,-7.117785305465853,-6.197654952859038,-5.022506141197611,-3.6363679327393124,-2.02626035108206
-1.309420213997419,-2.627644034579778,-3.5227354967994295,-3.9624950880004826,-3.8985594340978302,-3.3541203756505467,-2.4194184504597267,-1.2433721277541698,-0.026280380676727354,1.0114651867466995,1.6922624502489367,1.940972036082004,1.793696158892124,1.3463344583822208,0.6836994471998162,-0.15982232324315615,-1.1894086667775925,-2.4067408133994537,-3.7671869563799234,-5.164283909785942,-6.451448621337988,-7.486639082402013,-8.16859134267111,-8.442286079544653,-8.281852369839347,-7.678244028864455,-6.645396708596981,-5.2335110775310945,-3.534991018583982,-1.6835593499138386
-1.3942555035646584,-0.9277547079899885,-0.6056113373370015,-0.4511384742318547,-0.46385088815531494,-0.6063766610902886,-0.8356192604946141,-1.1306200957160024,-1.4864877238082768,-1.8840553632535562,-2.2673691585760234,-2.5498934643410305,-2.6466981676635175,-2.5134642353555634,-2.166930303367667,-1.6711397726136634,-1.1022981289436855,-0.5254850885951055,0.0020381894996184813,0.4224172073470353,0.6869373316991382,0.7737773060972676,0.6888674166115987,0.4497511265757057,0.07535551299511711,-0.40744480812036876,-0.9543129897983194,-1.506494691906981,-2.002822527903601,-2.3866779814557817
-1.8624883516685289,-2.8593507778161196,-3.381379925612475,-3.4915116366680636,-3.2449358376651145,-2.735904683470298,-2.0527742669231133,-1.2461069412844226,-0.3395499998189908,0.636072127354955,1.6196578708644882,2.5149600082313306,3.1901921013556427,3.4833241765890643,3.233176667306635,2.34025413081007,0.8260163835006826,-1.1496745541638205,-3.3245260347843653,-5.400602866351947,-7.110784979999758,-8.267159297504923,-8.785208453152158,-8.680541060381302,-8.041119684920792,-6.987790571623623,-5.637068703258813,-4.076052253083869,-2.360886369164189,-0.5454728108543726
-3.539423228812452,-3.806351901716106,-3.7655357191939,-3.4742342956222565,-2.9391043497724283,-2.2130115772331655,-1.3985539955142996,-0.6133643981607089,0.05368038696589498,0.5617796774416062,0.9056576962232737,1.0934993555737338,1.1369976398823818,1.0483104792185052,0.8232108922838446,0.4119373333343985,-0.28364169285982704,-1.3508702396477243,-2.768371434580953,-4.347928409373037,-5.777416985930791,-6.746810663549358,-7.076825955269023,-6.7755548620046495,-6.001704913291462,-4.966071753939261,-3.8296417944377765,-2.6523421314809035,-1.4140636301106457,-0.08470972469395455
-0.13919111598906342,-0.11382143292102809,-0.05067157198943754,0.05847485886812279,0.17071666144336362,0.24756560918249187,0.2646278913384449,0.20018180336737806,0.03753307426853758,-0.21049133440154044,-0.4837755020050064,-0.6952236379154183,-0.7816992829820325,-0.7428277446092934,-0.634379444830125,-0.5247030084900294,-0.4505975641848811,-0.40023791927110436,-0.32443156606242224,-0.16260822769779737,0.12813490265105365,0.5483711044388795,1.0454636049697272,1.526537717217841,1.894895905408435,2.0918162539163636,2.1175710112283457,2.017297405020756,1.8401668057826337,1.5979408873136616
-2.467530665909059,-3.288286035038195,-3.573979726430069,-3.3892172572393675,-2.766176115605968,-1.8081686892986446,-0.6974474577034471,0.34516261140008986,1.1305129788715977,1.560660853512168,1.6387736098868853,1.4298461565542242,1.0101928615853089,0.43694526373130405,-0.2643510217702416,-1.1053831305606407,-2.1263395265894722,-3.3595677535676742,-4.7774591606167265,-6.260120782131961,-7.608973910381354,-8.598992685124335,-9.039099479726945,-8.816625032592931,-7.9227648807231175,-6.461882651714277,-4.634450270726646,-2.681342535143215,-0.8048616644415874,0.8875171619077413
-3.383367805924628,-4.0081273308841325,-4.2816796779140684,-4.307604672541797,-4.0613400923104335,-3.511937691906618,-2.6577077514955594,-1.5261358222435983,-0.16926228005433236,1.3271988790021332,2.827528791749156,4.137220529590467,5.015792556955743,5.226053476411145,4.619644091781943,3.2216924768217723,1.2559351399808987,-0.9187235115412142,-2.9301063735913995,-4.510323398154162,-5.561596978256634,-6.154285283649261,-6.457627686436945,-6.6219663199975365,-6.670650142588074,-6.47994331817507,-5.871481148968508,-4.747521145212365,-3.165674800025482,-1.3134038034352324
-2.803822888881808,-3.5747578367126356,-3.9099326009801,-3.867770998371644,-3.478057701429983,-2.8284439108185646,-2.0405172990709852,-1.2256193488160905,-0.461596431145185,0.20106923846893265,0.7206708313932694,1.052123414217947,1.1501342093145244,0.986731630246814,0.5709060249307752,-0.04951732964931077,-0.8116678405474362,-1.6681002999478598,-2.594581937125769,-3.567331057826789,-4.5315227120430785,-5.389738986859886,-6.0205387148241565,-6.31499659141062,-6.210569699662893,-5.706355503426253,-4.853914698082974,-3.7305024010161167,-2.4121478552947484,-0.9623904841899422
0.6412380739428435,0.07093826703423223,-0.6570592288931547,-1.4911683341120603,-2.3389382381541775,-3.0632139764185258,-3.523289972786034,-3.6379927878892513,-3.4226097727711204,-2.9590421042013384,-2.3153197728215322,-1.4904739660266941,-0.44523760217301744,0.8095009548854303,2.1555399717305854,3.3942489569407432,4.328034678802338,4.832877420785715,4.887776044150466,4.5614295848174,3.9642091006054443,3.182704334816527,2.2396267225272837,1.1199879628663605,-0.15327538904894444,-1.4676544054418428,-2.6471241036365125,-3.5318191463412654,-4.0420272125559356,-4.186274765492073
-3.0839939754921866,-3.8552062411048063,-4.222534073899289,-4.291621450432081,-4.124609241699895,-3.759695174078429,-3.1748061390088695,-2.3058132045579796,-1.1302944903006065,0.24270834571645028,1.5605233078021044,2.5185654859501523,2.891838550900508,2.6124381012575504,1.7583250970264042,0.4937998327032514,-0.9845087125234093,-2.4817877637119783,-3.8335198907309542,-4.932902644634401,-5.743367959000199,-6.284277812202687,-6.594136814809392,-6.689467691196756,-6.544379243701854,-6.109978218377438,-5.364310308581182,-4.349470544578834,-3.156483339659956,-1.8712941609596085
-2.1616840148177574,-2.381120848295969,-2.6435327976301437,-2.9403501308022038,-3.1808166993825253,-3.257222838522304,-3.1292718273563804,-2.857832644539148,-2.5528053364216197,-2.2694192216315496,-1.9380199939377154,-1.3960798756711057,-0.5098437916961033,0.7077424126016566,2.077011877812008,3.3380981321742915,4.266616840466879,4.737777094908239,4.72300894012823,4.256356615697974,3.4076749240121154,2.272221157759063,0.9681540910283399,-0.369467416182794,-1.605643211052668,-2.6311543206576915,-3.38259187888774,-3.841343928186164,-4.013519939462175,-3.9106102893215398
-3.760007140264138,-4.144195857732395,-4.22665493199297,-4.121831537809089,-3.8335898130614448,-3.349552454477751,-2.6722700964982575,-1.8384213625248336,-0.9293221440660117,-0.0723334036554274,0.5739836316464123,0.8610434424533853,0.7111446682035802,0.16084891611587193,-0.6567804272266513,-1.591179764797392,-2.5568541555979714,-3.555150000651672,-4.627030790321912,-5.786080302381494,-6.981929746851538,-8.103442164484395,-9.003008744476558,-9.527878535620378,-9.555890215400199,-9.029804847377811,-7.975822123317678,-6.4956539786485985,-4.7369741709934585,-2.857901605179367
-2.625306783287647,-2.6739992355475977,-2.4150273676268297,-2.0597277447382116,-1.6763790757485069,-1.2476171450722282,-0.7170940960125034,-0.055466051451566134,0.6952236852406627,1.4224782970557581,1.981191895402763,2.2459596822302763,2.1579421771978855,1.7482023231248045,1.1218823124809263,0.40490386191453326,-0.3183333490680569,-1.038026145769725,-1.8047045033433313,-2.6803908773273397,-3.6838157442819903,-4.7558562416043255,-5.761328770054041,-6.528404952408498,-6.906898696466534,-6.813765752707684,-6.243475711512997,-5.247239503314444,-3.904355223447385,-2.305403956511889
-0.7520457883754771,-0.18524115866497948,0.13688563926775396,0.1955459711725844,0.054828233710715296,-0.16324255877357557,-0.35915297617707226,-0.5214051392707735,-0.7216798267688574,-1.0370994523523194,-1.4642639977777316,-1.9046446351112136,-2.231848712406687,-2.368090443810338,-2.2978545092315565,-2.0265655222058814,-1.5503300785153726,-0.8765109178878413,-0.06804376651950644,0.7430430812988876,1.394452012250313,1.757675566585886,1.784400485267155,1.5133069391565583,1.0429064459877022,0.4883144619156532,-0.06072640620207648,-0.5667819585686368,-1.0460107932198504,-1.539187391296895
0.41163223338542576,1.493007345638081,2.1669939594107954,2.3194631478533783,1.9704745706375864,1.2869927257343337,0.49669196522607073,-0.22319136201436648,-0.8020578656401487,-1.2519791417039399,-1.603791181505299,-1.8617087954405374,-2.00147715091629,-1.9946573302064594,-1.8286353714141539,-1.508182146843388,-1.0444012739986612,-0.44443492006901125,0.28600328676849285,1.1210200580511753,1.9825289528417949,2.7257188656599185,3.1705516002613763,3.176712633870393,2.719481042862229,1.9148690208656465,0.975362397234449,0.1227151778546327,-0.4951320765917998,-0.8466040960883121
-3.6367458307857357,-4.074279813535988,-3.967317674577194,-3.509178287962151,-2.8203391975450702,-1.9814797998446618,-1.03767780611604,-0.03643752392801858,0.9345862809187068,1.7562889276979354,2.3323064129710076,2.63287298605348,2.6785526575743916,2.4809069041744203,2.00776058505341,1.213109701750545,0.0978165657606983,-1.2644625997431262,-2.7571354213002754,-4.266463161854516,-5.6964916390009295,-6.9484336477235535,-7.895761979093131,-8.386530383074726,-8.281503946101926,-7.510963762770498,-6.117830171356281,-4.259777916312227,-2.1661786924143964,-0.07017639571703693
-3.5939816570539467,-4.416605323627487,-4.839481452824237,-4.881020065031494,-4.497359938144566,-3.705007588483843,-2.6034861189569227,-1.3489048558440853,-0.10547959455221174,0.989708635084336,1.8322960074623598,2.3402785835508864,2.45151688417805,2.136673610343518,1.4153999718468813,0.36102176936896435,-0.9095159579163641,-2.255291592326382,-3.5379398250756897,-4.654243421370717,-5.561974984791837,-6.272533549933126,-6.799361023181658,-7.096587965849181,-7.048059059500557,-6.530010461454444,-5.5012305005249535,-4.047768153851949,-2.352976268807393,-0.6260660427026459
-0.17861900929003038,-0.6355814125552278,-1.1743464872299654,-1.6652113538625508,-2.0225333529686695,-2.232267929077228,-2.303541080880945,-2.2097049625890306,-1.8973628079042508,-1.3556328282551289,-0.6600177258165156,0.0672922016663332,0.7407685916369289,1.3485502899165898,1.9064205002897643,2.3816802109259356,2.666933781311492,2.6307449720244187,2.2021092225065746,1.420885254910747,0.4185844397100853,-0.6485450498293284,-1.6596933035054584,-2.5491450866809777,-3.2966475440803125,-3.9141299351079692,-4.430300287306976,-4.85971637170153,-5.166787937274499,-5.261778608608584
-2.255902000900318,-3.073891342641986,-3.3405757970359535,-3.111479462155188,-2.4969937561400046,-1.699176507563536,-0.9064174683767935,-0.19575773582749456,0.47239686685858245,1.170642105733121,1.9053411766472308,2.5722805687389814,2.987303245111139,2.9671291209510473,2.4159056718213576,1.3734956939749456,0.00046143636162498947,-1.4923182684366925,-2.9303608758731152,-4.226985528642594,-5.3655454707485415,-6.3271750409662895,-7.02673953336969,-7.317312952726654,-7.063405183621608,-6.223554239760953,-4.882353728991914,-3.22079016897113,-1.4552298236451169,0.22106257033351429
-1.2251991938244302,-0.95183821130929,-0.8856848631101695,-0.8445922581233113,-0.7574484759616609,-0.6572721576698839,-0.6061770652575617,-0.6208987914868673,-0.6575577301486453,-0.6490737051873348,-0.5480358685869489,-0.3422739363448215,-0.04811757858447363,0.2978600679211998,0.6438978328042053,0.9380911302826574,1.1572917706818298,1.3280460570389838,1.5123745086365206,1.7598070732753557,2.0625498446775383,2.3550296067705685,2.561273745778686,2.6444257524692456,2.6054354954120056,2.432232051193208,2.0621806800882707,1.4127008751184822,0.45947946295878483,-0.713611213014975
0.07730451872581545,-0.8399135141078631,-1.5522485221999924,-2.0912710251700704,-2.4190144775693407,-2.4759896397174916,-2.188987893828716,-1.521752319475999,-0.5291671257308461,0.6383806864983147,1.7795345953396664,2.6946992053297922,3.2201988964945785,3.2456274175901205,2.722404517554274,1.6655072320497295,0.15025798395947443,-1.6915617274925183,-3.675878564045851,-5.578272320320363,-7.164488213973658,-8.241552166476472,-8.711880634983554,-8.598379950896215,-8.018847409470567,-7.1208615640982575,-6.016313980826587,-4.7534999377731495,-3.337627711223394,-1.7802495935652574
-1.7675078605652204,-2.2386470557542735,-2.5712709010720163,-2.7015964727039603,-2.63113072198025,-2.426498235832971,-2.1796736380399984,-1.9450306288923778,-1.6949066093394678,-1.3285591103678567,-0.7327757775870098,0.14172808032881162,1.2307029933343048,2.361596230364707,3.318280507110564,3.9371144845218238,4.17586557188484,4.105052619670622,3.829801415024791,3.4095834956684303,2.8386936133572527,2.086107556550965,1.1432307438449023,0.04183363528780082,-1.1521875707990779,-2.3504858093493706,-3.45745248971232,-4.390026372682067,-5.086539971459007,-5.492138002131025
-3.190701122236461,-3.493452067535193,-3.351830993370692,-2.9826533602457688,-2.572027544663461,-2.2165192821001134,-1.848081376626451,-1.3051192206465452,-0.5039986496351562,0.4455432893517755,1.2862873316063175,1.7767043405996452,1.8299506622416981,1.5239617042329403,0.9983841026184432,0.34077257245516146,-0.45070432339686806,-1.4235177955358012,-2.604377644273498,-3.961763875495352,-5.401365351768603,-6.7732701311346375,-7.886730167411844,-8.54735124019531,-8.616748769798303,-8.064174473708611,-6.974399619530062,-5.504390364898495,-3.815935904306327,-2.0265504790861315
0.15006120203756113,-0.18508875051478946,-0.6325908962104105,-1.134400682366162,-1.607236809851424,-1.9364254348310639,-2.008598597381872,-1.7739926349805875,-1.2854472952194091,-0.6701981245957152,-0.04994398591838589,0.5297981475336893,1.112428066029241,1.7840207828034078,2.602364051309752,3.5403448251195893,4.468610716477494,5.184149178043044,5.474730941960619,5.1946651098898435,4.318914407594182,2.9498201426502844,1.2767906117557373,-0.48237381897591086,-2.125752645243219,-3.4888386271696943,-4.45895473014147,-4.993568681466989,-5.130353650738276,-4.968548827548027
-1.3111933119263572,-0.5439588343484303,0.10583448353213235,0.5969126100295296,0.8888464793332566,0.975389256223748,0.8767636300909012,0.6211297927828832,0.23917206904260968,-0.2268006549428342,-0.7107337321407267,-1.1193098174722984,-1.3466931225050376,-1.310585229759766,-0.9954091885612584,-0.4720818304480158,0.12937007202585782,0.6828152191153056,1.1184816224626377,1.4257376498780827,1.6156465589161946,1.6892734441288828,1.6396186671935997,1.4696366808375458,1.1956560940526821,0.8349834554039792,0.40162774094408404,-0.0799628696667325,-0.564530205880635,-1.0032500518514884
-3.63314340882526,-4.078298344154694,-4.097723826609429,-3.8759132542802037,-3.513629721899668,-3.0547339844269588,-2.482044644927312,-1.7522297454461433,-0.8447159935861628,0.20217633688369518,1.2728270174404452,2.1805668033384693,2.7160112434645183,2.7312812722030113,2.2096286460615797,1.2659875562227574,0.07916950582735482,-1.1870572619837176,-2.4201811712610635,-3.5496001086416022,-4.525424117065475,-5.309664090227409,-5.872814496590301,-6.176772282510339,-6.148338921181888,-5.680451895163048,-4.6905989511564234,-3.206623748736887,-1.4046073443123692,0.44297317161013794
-2.479496343877752,-3.2058450899086477,-3.452895347937964,-3.351522705373151,-3.000418042254208,-2.4594837178221187,-1.7245122185816906,-0.7800713138785874,0.3191272252652935,1.4215250964464254,2.3312521647709454,2.8928159867720424,3.0464130828471996,2.827770038301468,2.3251261498623084,1.6229276923397384,0.7619489293393769,-0.26163156063327353,-1.4531341717305388,-2.759574893393184,-4.046856109844802,-5.148104886855174,-5.950896264369826,-6.444257981734589,-6.681164408759442,-6.69674628613139,-6.460472175425257,-5.895067265351701,-4.931746427590037,-3.5605335631571036
-1.1484121653498518,-0.4109905769941651,0.18907662775257877,0.6275932973936091,0.9082448574421847,1.0641499583171803,1.116588362247676,1.0468590463770353,0.8098430559742399,0.37413448052183396,-0.23972669473429775,-0.9395134467855648,-1.5703572057469226,-1.9599426710464656,-1.9882893384587037,-1.6457411325443547,-1.0417447782368014,-0.3558894532811416,0.24194793209324,0.6582161379379079,0.893745800058326,1.0068691988051248,1.049317310406117,1.0208265972174733,0.8744819609957728,0.5651545253812573,0.09958490621163474,-0.4517979049652311,-0.9875578591156471,-1.4243536551034754
-2.8684638125917803,-3.744000932010775,-4.34970805168993,-4.786756894999172,-5.0090228334718265,-4.908948499196201,-4.381835759954791,-3.402804065930459,-2.0732183232683403,-0.6045765753319965,0.7542581243341389,1.8076687036422592,2.469459192955658,2.7492028996802342,2.6826107743322174,2.2675444918717975,1.4637262350446287,0.25527220773763704,-1.2832082804974898,-2.9777838361318345,-4.611111030201634,-5.996546012214117,-7.018616158527447,-7.627523098559463,-7.81296659913419,-7.584176972544494,-6.961111384355274,-5.969903082180382,-4.642712240673172,-3.02805543490555
-3.934707373259527,-4.554281087251979,-4.642633228371126,-4.289266772261305,-3.545639687180585,-2.5123713094203843,-1.3373037697283572,-0.18113707262001533,0.8282269886245075,1.6253369279334065,2.2013480048761713,2.5674690034274024,2.7162342332890543,2.6101901803206924,2.204024443244333,1.4809258565866232,0.4776768981861468,-0.7159142097891766,-1.9817346776638927,-3.2088032200154184,-4.322233410501748,-5.291899335535551,-6.113376072986694,-6.765958749500854,-7.173563278733422,-7.206441652701269,-6.739051911764289,-5.730961005054599,-4.270784379906873,-2.5495983555025905
-2.642406493601207,-2.997499544090916,-3.0162856662191664,-2.832972013437293,-2.508720641218269,-2.0909687290763337,-1.6113129776681392,-1.096092264662593,-0.5838739418644404,-0.12847681861395377,0.21676862771619043,0.4169012630197695,0.45882871285931603,0.33889014127883565,0.04479481388348061,-0.45396773986398353,-1.195042288707695,-2.190433526966791,-3.391575128249251,-4.682518513203036,-5.912148365238611,-6.941030447794151,-7.667004274272292,-8.019404401803142,-7.9437617801760245,-7.403203688918766,-6.401426465122585,-5.009701656958512,-3.3727758919465587,-1.6786552771612
-0.18071649887175734,-1.1135754377905636,-1.9527789190998988,-2.58015307779894,-2.9105172910792767,-2.9049956048535828,-2.581552128426082,-2.001412029406393,-1.2353948314533818,-0.3398647630363081,0.6376376583144612,1.638052080140562,2.585079964829099,3.3986726708948636,4.006834221234042,4.346670795469979,4.371985107891408,4.078186273814272,3.5221482909757853,2.8068639467439747,2.0336922268105964,1.2551337726203253,0.4554729841467761,-0.4344293592720021,-1.4915172188152692,-2.735017347803305,-4.071075721892418,-5.287951356799553,-6.117778883509102,-6.335285116732107
-4.648022983579473,-5.389814041545044,-5.600152934821388,-5.341300718176008,-4.64486007332717,-3.5881119923053033,-2.2736134271720996,-0.8049918751222238,0.7015223886615222,2.0807141205389863,3.1085059890542084,3.5559439967346114,3.287292405908503,2.3370898493618877,0.9091343262309157,-0.7057909395949742,-2.242427531424304,-3.540474559300092,-4.560394982202824,-5.346576475807602,-5.9658852819315245,-6.447276242779676,-6.747685544005951,-6.766889180635776,-6.409558004460795,-5.654839944016708,-4.581505775296205,-3.3307311078057644,-2.0393267103792247,-0.7937843310636477
-4.702409100313287,-5.626003785928129,-6.2543627958414465,-6.6266712940311026,-6.67961441782062,-6.322672422943709,-5.482182316886416,-4.170922902918421,-2.5388133907077974,-0.853745866631743,0.5882273257659227,1.5697363855195483,2.0131011814799207,1.967840412819082,1.5417987035279037,0.821714065202296,-0.1667796795870689,-1.4352375461829667,-2.9664362468071235,-4.659735498417484,-6.32772660841315,-7.7418409205924315,-8.695764988536876,-9.056397814588442,-8.786293850006132,-7.934130679490261,-6.601823034701212,-4.909752913815712,-2.984328384435131,-0.9732017548825369
0.43276790476846394,0.5350998432574938,0.42044302120976457,0.20501774316922702,-0.00870994606356279,-0.15665096756510144,-0.23620989476045173,-0.2919356873735881,-0.36591994774809844,-0.45360424706545394,-0.5045818493703659,-0.46397706276802186,-0.3114756061193822,-0.06442485357960881,0.24620244711014272,0.5940621034122643,0.9551799632124752,1.3008198150542323,1.602905406146318,1.8463191247162842,2.0321203713911484,2.1711119456095256,2.27920934358099,2.374255722344147,2.4610158305200587,2.5045039518497596,2.416646119536664,2.0818198238783507,1.4181228652196742,0.44176563015265874
-2.5764921642947933,-2.8914506049407347,-2.9047298214131345,-2.797740586301361,-2.5835058525118035,-2.2116090088524336,-1.6363569807357596,-0.8642174407098738,0.03866099837347339,0.9652277986116469,1.7858093570971194,2.360497635773079,2.5620660470822827,2.3153475886320103,1.6299156271777182,0.5957436054720102,-0.6597139775060996,-2.0201727890963204,-3.4001521156031904,-4.732356002159938,-5.947419014846049,-6.965852976967225,-7.699928721500023,-8.05824321264127,-7.959195628510669,-7.360475683004534,-6.29004834991601,-4.850639370089974,-3.188779347761451,-1.4509202214544112
-1.4636291804436614,-1.8564352950368228,-2.151056695787957,-2.3463214805413064,-2.4669475865169153,-2.5324909000789035,-2.5431431294111233,-2.4922944926487265,-2.3821277825766503,-2.214226676948901,-1.9590805468712704,-1.5417270110560382,-0.8765531936141956,0.06046357589069484,1.1777980326208646,2.284101787202277,3.170531546139429,3.70175960000548,3.8528083458763414,3.6752217378714325,3.230478362427357,2.5467830427057945,1.6286566262967441,0.5043192177678615,-0.7315026432516402,-1.9169599329122633,-2.8724729919693464,-3.471267591478653,-3.6833230181622336,-3.5635230800241247
-3.701031981381757,-4.618453230421739,-4.9353608522728045,-4.661906213141075,-3.894859647994783,-2.882801098284362,-1.9263932002196957,-1.2392945408190532,-0.8651052402551234,-0.696066497792809,-0.5685866357248317,-0.37235721331009985,-0.1180447400476421,0.06224429397578635,-0.020040306038935585,-0.5074257679482042,-1.4093150111440602,-2.5858553809981935,-3.8186293581725064,-4.919499041837524,-5.795957734249063,-6.430449567616618,-6.8109625715501965,-6.8890177611248475,-6.600750202348451,-5.9196276945014645,-4.888068604246383,-3.6054918975924353,-2.186683865398435,-0.7195883302186024
-0.8229584925939716,-1.3836396796085675,-1.8882970237269765,-2.2647555521543854,-2.504916053876211,-2.6378794366649436,-2.700097492598006,-2.716902345710056,-2.6899209617033475,-2.5883952246021957,-2.3558941966970792,-1.9376514072996613,-1.3128375073290917,-0.5115318799154984,0.386256011108949,1.2602441076827597,1.9679533513223793,2.380195338868016,2.4288401587050847,2.1348351381862436,1.582717285867457,0.8512628422736184,-0.038803855212735106,-1.106531665652644,-2.3410575212027567,-3.6545550637909177,-4.8993591893829365,-5.916093701010016,-6.561524532965496,-6.715808296113107
-0.019374215758084623,0.5619305835968029,0.9483874665445443,0.9952664599307698,0.7258911704173965,0.3159568691010013,0.029893159057404306,0.11843788522400156,0.7071470167242582,1.719141455193959,2.869334608248984,3.744968320858236,3.956445296418352,3.308403673058446,1.9141409238603657,0.1837660533523926,-1.3209056269062438,-2.088573758124954,-1.8177306828613295,-0.49132571743777187,1.6131855799521995,3.9647018796701614,5.890128123106102,6.759904598581724,6.195012663449553,4.218808632465984,1.2984763854905634,-1.750123215261779,-3.991317726594425,-4.678387511530499
-0.20268481382287662,0.05181312956753767,0.011326538298952258,-0.4568223529259928,-1.2480085867318305,-2.0721611904499104,-2.5927333756969233,-2.5666864839555172,-1.9230594132027257,-0.7807890806761311,0.5681128236894258,1.714863099117257,2.254786629831447,1.9539977252517118,0.8787254005403673,-0.5974457808169098,-1.920073085292679,-2.548428428152272,-2.1356419527622434,-0.647279008314509,1.5981785725100228,3.984310665980084,5.7605981068024015,6.28415561473302,5.254472999986141,2.849660187023445,-0.2853203179999311,-3.2019783153312273,-4.934017174771099,-4.834349765631984
-1.3417338306141962,-0.6193666562198781,-0.0658416149376431,0.3220393200269571,0.5317964472609653,0.5590657584019644,0.4372374083834196,0.2465033243113242,0.0775345547773455,-0.027005601651814537,-0.09709889251683423,-0.19783006822690163,-0.36288888450686385,-0.5586633065680388,-0.7028703581575142,-0.7105057744209512,-0.5292373610554995,-0.15359284700366319,0.37191173336725347,0.9564719535024189,1.480233196444499,1.8260088928465228,1.912987138748877,1.7187064868980153,1.2849826871617944,0.7066137136453656,0.09900155007749412,-0.4491720135824112,-0.9107728686368293,-1.3134151034878436
-2.7106937402875024,-2.960166858546464,-2.9894621607958256,-2.963094066014338,-2.87366626056162,-2.6332009964265843,-2.144992765405375,-1.3813997426159585,-0.42817642321445787,0.5340721172177023,1.3072867071029701,1.7666843666730068,1.903055285323513,1.788380824086365,1.4960283152308222,1.0399675929068986,0.37716115707835085,-0.5368518920332173,-1.6894963542961405,-2.9921992233943855,-4.302153549397412,-5.459452757304589,-6.320687171242605,-6.782752363018638,-6.790887400341493,-6.329207256470672,-5.408942095048632,-4.0742157738660945,-2.4208221816364883,-0.5988797770392079
0.7838924895686555,0.17328955613002672,-0.7404002215986639,-1.8144941240254777,-2.8753248271726237,-3.764874664525693,-4.364780443976883,-4.603633401832823,-4.459774925485178,-3.95862119008801,-3.159162526217342,-2.1349685655999027,-0.9618867667643661,0.2814927038300319,1.5039529420664728,2.5908816133996178,3.4043576912025975,3.8064603444908975,3.706671628666206,3.108764786965368,2.117492310303767,0.8903094355054864,-0.4301322560142966,-1.7475420002135107,-2.9910855370000267,-4.078417209064643,-4.907102494445635,-5.3809896386111165,-5.4432145174940345,-5.090036621012455
0.6735668575281554,1.2786132276078033,1.4320235574105529,1.188423594396144,0.7107713876621977,0.2194724982530529,-0.10433669560473488,-0.19555909852374082,-0.11361426515597767,0.012952242788799029,0.05655849644035804,-0.06858046610919688,-0.3989460200581014,-0.9253915482632791,-1.5936725696853875,-2.3080197095907184,-2.9495631286107638,-3.4078645726185073,-3.608795861405054,-3.5238630117877046,-3.1632219613074355,-2.5677198258218867,-1.810921054391809,-1.0061248974971602,-0.3008545938858813,0.15595664067510806,0.26834160703939625,0.039085239071756206,-0.42739873708946097,-0.9744235523090938
-2.4134066915625945,-2.948617445308116,-2.9671100380611737,-2.5793728502752584,-1.8948225070656601,-1.0698869757766558,-0.25756995064579247,0.44513398108508495,1.0185354372849602,1.502375171721062,1.9482766518495838,2.361476296545571,2.659576947388736,2.6794914313848928,2.244199418854305,1.2593964524789603,-0.21982119629432006,-1.9968736494919055,-3.8073086492758588,-5.404718670956544,-6.611957217383446,-7.334701607992951,-7.560430943081962,-7.348597026715845,-6.7966797409215856,-5.9852520015034845,-4.941696077275612,-3.6595172168355776,-2.1600394073451303,-0.5420211862995796
-1.2214120088259435,-0.7424561895986308,-0.5458970485516389,-0.5876569827953537,-0.8099609562269475,-1.1386229539429331,-1.4833038724161647,-1.7493727536636527,-1.8685794456008735,-1.8308227164875317,-1.6877590316717401,-1.5181462264698278,-1.3766824668734876,-1.263150113923745,-1.1344318595041745,-0.9483170628083046,-0.7010389448307953,-0.42658364407854277,-0.16282694528579184,0.08021869831136996,0.32258197340863215,0.5904613368504323,0.8876263898082412,1.1800763689713163,1.403363852047312,1.4908729015209932,1.4034854555679852,1.1345212333036636,0.6889726167965824,0.0709638670074681
-3.058952270104102,-3.5109619401083556,-3.4882209530354333,-3.1838303442839386,-2.71006413483018,-2.130284724122889,-1.435418120466302,-0.5590508105196188,0.5475083838985504,1.8202799466806532,3.0463336449706713,3.9313537369997302,4.233881023658181,3.875524576718367,2.9600347064108536,1.7056886568455107,0.3472284878523271,-0.9383730143609658,-2.060789876427733,-3.003619893747257,-3.783841090221193,-4.406260256284188,-4.841516877768772,-5.040782210245708,-4.9694933888611015,-4.629472089148317,-4.057152861599164,-3.3086987458635457,-2.4442047927140824,-1.5128481473130617
-2.1200129916599257,-2.7027632876324432,-2.935286052166093,-2.8578161260812385,-2.4536190208904953,-1.7530080751852055,-0.8520980067367461,0.09183906476971282,0.8909831554900374,1.393023461322942,1.5552410495992854,1.461528882137216,1.2475918948855123,0.9848827215339355,0.6188993020613811,0.00892065672660336,-0.9697862224193501,-2.3378000942695834,-3.9854597332720445,-5.706642591318749,-7.261271029826911,-8.437849102476097,-9.101927588788984,-9.219185891588142,-8.837608143891195,-8.03092836560771,-6.844855103545804,-5.299211947095684,-3.449592662367817,-1.4464452398145817
-2.2937746707749787,-2.510167515095385,-2.5202678827759777,-2.3939567233489676,-2.1066428964864423,-1.6468634631821244,-1.0501471982452861,-0.4015407941573315,0.1958737393267977,0.6694484167207411,1.0051566537348897,1.2285886833750679,1.3524621758038713,1.3363859700805407,1.093791428594021,0.5391344074917688,-0.3611637201285556,-1.5638139007704297,-2.953594487478744,-4.367560977949304,-5.630696133033983,-6.5963916170030785,-7.177747394347631,-7.35498752233834,-7.158069271642435,-6.636824855821098,-5.832424004620689,-4.762125818583975,-3.4292474359632954,-1.8591931689149352
0.11911424795003585,-0.7520711189820871,-1.57454149397817,-2.238761927536303,-2.703757438241513,-2.9648287014028734,-3.037572547471492,-2.959795636427059,-2.7854083913447516,-2.5524636263172513,-2.241271159776776,-1.7661813971211846,-1.0304860323145717,-0.017697931888720708,1.153327628105177,2.263595978508899,3.1002880525162015,3.553545633536041,3.6321446275187843,3.399000444617196,2.894668952141781,2.1156520280882822,1.053551738182662,-0.2517026028633788,-1.690830942592798,-3.106987628803933,-4.34193464330618,-5.28065521006646,-5.872111559411264,-6.11326115598202
-0.14906659573644276,0.30575846642863225,0.5132760925017309,0.36219473706320976,-0.08336625865622088,-0.6140885341311633,-0.9554025930760138,-0.8732586390529039,-0.27493650068603076,0.731647647949444,1.84962107704053,2.6810768604045743,2.865222836412077,2.2178051795616085,0.8205431225754695,-0.9709429576983158,-2.6057400388657923,-3.491162594107291,-3.19472013531798,-1.6368828102035615,0.8134809074291873,3.4123984288818123,5.279210143740985,5.711878310367588,4.45241400394089,1.7980215235281476,-1.482710191645413,-4.395132762882244,-6.036153877547944,-5.873806781015588
-1.0823328758390778,-1.159827217995588,-1.2740305859094172,-1.3629359264476972,-1.4381981481465183,-1.5400183172508186,-1.6811392060853385,-1.8208512351611827,-1.8913144140782814,-1.8492971904417463,-1.7064809153612497,-1.5164628908828102,-1.3332748050396188,-1.1721403092024654,-0.9978608615920538,-0.7503899429935047,-0.39230310948515185,0.06049383014393229,0.5559182448419462,1.0550134571582164,1.5577987514074123,2.0716007282102087,2.554365878442839,2.898362016280018,2.978773693395281,2.727198957479164,2.172140317993832,1.4231256602885365,0.6167077525466218,-0.14005453932413287
-1.9012777256299151,-1.9420386972774553,-1.8278642288325835,-1.7502938267821528,-1.7149921571021323,-1.6193614752797534,-1.3229592740193539,-0.7435947446560326,0.0781477690369638,0.9901329988214242,1.7992938235693408,2.3421818257839098,2.5136873789601912,2.2648449044947094,1.6048451227073146,0.6138273473030436,-0.5642316533138024,-1.770642082188126,-2.898098079640333,-3.9214976426732595,-4.866327699229747,-5.736799389133602,-6.456231243572189,-6.867722268352093,-6.807078024577116,-6.206052941148243,-5.149832228403551,-3.8385774640615873,-2.4777991485093134,-1.1810246822187809
0.3171108283857934,0.37825515335778415,0.15947733409891052,-0.2401718177762107,-0.7338261811084505,-1.2276442407916854,-1.6296011775249026,-1.8834715229600725,-2.0023300484122672,-2.0612284506326524,-2.138278300398028,-2.248823120861773,-2.33350513304575,-2.3107094544101034,-2.1418691190484136,-1.851977095517252,-1.4957515470596001,-1.1072854454344947,-0.6797462496524758,-0.19343078099608801,0.3339268037311952,0.8268952384344221,1.1889947358824335,1.3623020890412727,1.3493370325689726,1.1808245332944005,0.8745118857688743,0.433304494317182,-0.1223829480272316,-0.7326996425812223
-3.150380260202967,-3.3850914552509206,-3.050995547194132,-2.352864281199512,-1.468602939586058,-0.5794756660594096,0.16274028585027067,0.6624156017431921,0.8991650036253693,0.9351276090850649,0.893006993071388,0.8961779962297329,0.9940986850375941,1.1185127350126898,1.1012075836047879,0.7445780327576503,-0.09260167667438335,-1.4321734665634396,-3.1565276941676577,-5.032847835183361,-6.77164386665691,-8.103306526940372,-8.849194149605347,-8.959475609987413,-8.502545002401767,-7.618696944077982,-6.467664544004589,-5.189223914629782,-3.878175996461078,-2.5752909982159435
-0.568516594293494,-0.20206761300348638,0.15331215990784694,0.4685986953227348,0.6858189760522264,0.7460163947762981,0.6073512070607436,0.2728044228584869,-0.1818883848109265,-0.6105897025276331,-0.8483878605794427,-0.790226796991621,-0.44291096611446634,0.08921258427356626,0.6737992658485508,1.2210990389198586,1.7055828847332095,2.13615812384803,2.514790237307107,2.8188460029598,3.0085048085976958,3.0443828497440304,2.9083884374302107,2.621346224444076,2.2398108661715623,1.8220658369715084,1.3856257815189852,0.8977331222483841,0.3149226737554128,-0.3615832440266079
-0.6682259901579415,-1.5579674361998956,-2.1895827031711077,-2.532278402961035,-2.5199097369959382,-2.1741543719625933,-1.5874069224020126,-0.8552437650632968,-0.03982389757039209,0.7981830439429285,1.545223579414944,2.034301286558496,2.1157139948021553,1.7370924803842236,0.958909038218881,-0.10484541939503522,-1.3632257359893292,-2.7765044648016355,-4.319496610623872,-5.918757793236639,-7.419035760989468,-8.607852440806848,-9.284875117333288,-9.335193018389663,-8.766351999363993,-7.694378989638912,-6.297081991219885,-4.7676180493324924,-3.283894243740337,-1.9826954576983646
-0.5562853504160887,0.2287751121818339,0.7871738788493664,0.8549144349532408,0.42119951975636766,-0.25941330779717475,-0.7852404154697191,-0.8078151763309459,-0.20307537922197766,0.8789680299856035,2.0897274713125933,3.014615298228018,3.2981127839023414,2.7441049776875324,1.3952819619701258,-0.43069396724528397,-2.195486025136039,-3.303901266894998,-3.3267043632561677,-2.1829690774656747,-0.19619817535951417,2.000125308295317,3.667016052954456,4.198618996945033,3.3204684046609527,1.1967074865697338,-1.580388617045875,-4.130206783445461,-5.5417271884187285,-5.188521927724144
-2.7431656653530565,-3.5559763906611583,-4.00065495588999,-4.157682429729764,-4.005509117154241,-3.5102103636018924,-2.6874247101355166,-1.6402079482448004,-0.5365347268572896,0.4530504569220142,1.2040300428640993,1.6472079479589063,1.7599011218997718,1.5667923759983646,1.1440296670353336,0.5979739795236566,0.012629269082360839,-0.6001828278606516,-1.30294937579689,-2.1727385140263302,-3.2140139176708193,-4.307163674126288,-5.236169298875885,-5.779301546550104,-5.7991773762712535,-5.277475887469738,-4.290073763677542,-2.9570014264804882,-1.40231987877515,0.2601510493034973
-1.6865290921595832,-1.2302232774077375,-0.9479014863569036,-0.790116339658326,-0.7290379401648742,-0.7462350533348379,-0.8313338623554136,-0.9889486895433914,-1.2363997150320065,-1.5804462387520455,-1.9913511270510025,-2.4034329941802346,-2.742686570331853,-2.951535739163706,-2.990417949039121,-2.83030385900975,-2.4603826727770683,-1.9098937424815647,-1.2589192547962156,-0.6189662157616733,-0.09156950759454174,0.2657447253677494,0.4420643345660622,0.44756884594607205,0.28522995399028894,-0.05779537856241945,-0.5938225675859614,-1.3027627524791892,-2.105466907144712,-2.867142150912669
-0.7921716552441095,-0.6086108516362027,-0.4365009655187556,-0.5072830386669956,-0.8381077466863853,-1.2548240074109065,-1.5108772929244738,-1.4094262715007335,-0.874495578356667,0.02147525092151842,1.057679716528859,1.9085485137612341,2.2497622667450505,1.897680580074444,0.908232392364746,-0.42472468739174096,-1.666938289641415,-2.379207270555389,-2.238604969343225,-1.1363860684612757,0.7445902452796247,2.9110248506463474,4.663217048415496,5.329268370218432,4.53531055846373,2.3785140992072904,-0.5714201081896901,-3.430802234675088,-5.265936176405237,-5.395472797048888
-0.4718370294143458,-0.40114069023317633,-0.3111866109064272,-0.3545115469234969,-0.579303789430122,-0.9141260268873793,-1.2057662906745208,-1.2862013444747085,-1.0469966847778185,-0.5088764170954241,0.1397971698053928,0.5784044657982716,0.47931229128206665,-0.32660264733304833,-1.7363347639661553,-3.379591314371914,-4.738343676648515,-5.323031637628264,-4.840523043496091,-3.308814366343282,-1.0868941313161091,1.203197379669652,2.8567888434660547,3.317939986019889,2.378856543118914,0.27108719987098584,-2.387486487420362,-4.771206996115593,-6.089069636567941,-5.817735185860162
-1.0694009648862617,-1.7439238741077174,-2.4634339964396146,-3.0650548388188774,-3.4318289887800506,-3.5187307401913452,-3.3468675134127244,-2.9725261309331614,-2.449829290136532,-1.8062097422950343,-1.0410618755850034,-0.14607440982582562,0.8664297690291062,1.9463810567469968,3.0093370887463173,3.952070683305994,4.668374919785078,5.06586737229623,5.08992136560402,4.745266589540414,4.093025596406395,3.2193017716882384,2.2041494396711103,1.1196695476020804,0.046400991975375616,-0.9280470607592126,-1.7362605897180423,-2.3504012862804156,-2.7663324155113562,-2.970975392821221
-2.6545866488931553,-3.162179857455636,-3.357894119504245,-3.3372494170156286,-3.1384755021509316,-2.781785694708677,-2.242432031547707,-1.4772655851202545,-0.5010981188663599,0.5603305610795919,1.498287183168229,2.110355096662809,2.2781872979451983,1.9813621354001563,1.26021973595999,0.1804421415449503,-1.169381772890469,-2.6648577723000217,-4.152031088229753,-5.480666623823267,-6.542607137089426,-7.2895699839999875,-7.7197165742484675,-7.842315627460887,-7.647509005729144,-7.107393177626619,-6.206866185879889,-4.974711676628332,-3.489841232381424,-1.8645870573512442
-2.718371375765845,-3.262817133113102,-3.4655376286097312,-3.44898394716215,-3.2765922949632236,-2.9809789255320704,-2.534314789033644,-1.8671271256146635,-0.94080495435662,0.17855020702311308,1.3063376195828713,2.2026630251428956,2.669262191519528,2.6121773041650242,2.0365041689720558,1.0014554308239356,-0.40807966506414894,-2.0689912556871515,-3.794362767279348,-5.341364161276144,-6.471573340791037,-7.0374706188685305,-7.040898763166614,-6.619690672696231,-5.964531605084436,-5.217003609365296,-4.4114775360452745,-3.4896240067944824,-2.368368107543978,-1.016304569119384
-2.8921634496853295,-3.243035212117112,-3.2688802796838465,-3.0750483812089637,-2.7196981731265515,-2.2721559264306146,-1.7794017888382911,-1.2385659510756217,-0.6158142872819187,0.09722003008342228,0.8385791005215744,1.481389775265098,1.881355011301926,1.927773820363668,1.5703142840318338,0.8203298389531228,-0.26248354529532564,-1.58814724427676,-3.0502980313218484,-4.532346275612113,-5.91375735858764,-7.084106409272127,-7.955377234178384,-8.456347254030128,-8.514066774698298,-8.049469051912265,-7.0051415360747855,-5.39296716986181,-3.330345762972491,-1.0385091841634035
-1.0384293283617647,-1.5107836594959774,-1.6607231952043682,-1.591764387438394,-1.3236903266770608,-0.8772929562180045,-0.3052123641534652,0.29631455487976677,0.8122673412664463,1.155968944234431,1.2994957396098088,1.2656429079776883,1.0958037561953673,0.8186550389926366,0.4272307656079207,-0.13457689687934415,-0.958154725484589,-2.110935768554844,-3.5565249400703545,-5.118313127987894,-6.526788987468413,-7.521755974158862,-7.941809927431679,-7.75646169221868,-7.042021907438409,-5.927799765576164,-4.543092541915161,-2.9910675786659766,-1.3596335840752851,0.24943016991535116
-0.09042280685292836,0.15389411897609248,0.44468462008270415,0.828133975371904,1.2398650002219391,1.5389220606747431,1.5762207825517363,1.271772961813437,0.6564041421354688,-0.1374617781607107,-0.9166709526977921,-1.4778974948079378,-1.662675738773973,-1.410605131801373,-0.7851804070764409,0.05262201505505393,0.9134290466412155,1.6500381945650135,2.1940272692460105,2.553021023262433,2.783443310970587,2.953738170077105,3.1072897518882536,3.2354871915549106,3.276527432628309,3.1496451890802866,2.8103464663900035,2.2884065235152744,1.676488722967531,1.0760934429286428
-1.8906029000503608,-2.5844994507170203,-2.9804405506923235,-3.1212823378278194,-2.989297653798556,-2.6035494583657184,-2.0096879856712793,-1.2568556983586647,-0.4044981823600241,0.44832508806653165,1.154369103361938,1.5551747247772711,1.540298727239997,1.0849406689711754,0.24777635436023138,-0.8540208465896093,-2.07158836725242,-3.2538464966647638,-4.28895327550922,-5.144276527533552,-5.867195584702985,-6.524605773878409,-7.11232674311799,-7.505867928522705,-7.503654914800604,-6.941571846404778,-5.79625407950013,-4.202716539097611,-2.383919571566564,-0.5566170056868366
-0.16755012665237157,-0.13589878532600802,-0.11739525351163071,-0.00914238918843488,0.1955286731023761,0.43257680329645876,0.608951533547136,0.6492250007632328,0.5318278317818187,0.30263564364526785,0.058851217196727035,-0.09169456894525863,-0.07623922286363394,0.1166678312700844,0.4442289683811702,0.8419696424401476,1.2550131217719902,1.6435672654767342,1.9662017731998083,2.1716687461969673,2.221819388218416,2.1283474791075343,1.9589069938575676,1.7885720017069695,1.6274298626287695,1.392077605736082,0.9619164716020141,0.2831267889756569,-0.5701130584424704,-1.4339575021177338
-3.6287962996371257,-4.2051785804876936,-4.354308442231039,-4.1761162233982985,-3.7173798330036805,-3.032157859403623,-2.1591918609876566,-1.112778254725766,0.08735477722378429,1.3649333745337038,2.559281975194789,3.4550873044875563,3.8607729686909398,3.6843289733761355,2.9553195063894755,1.7869169782744958,0.3184877864120266,-1.3167767486163102,-2.9903941053463354,-4.568182492170523,-5.916735664695355,-6.928843038815173,-7.54800276009715,-7.767910206671718,-7.599605452554311,-7.0309951933012025,-6.023632059343371,-4.5662468310767075,-2.7449230503668094,-0.7594851384421974
-6.3634837748939335,-6.143217506089317,-5.383083556323681,-4.352110824455942,-3.2096417302337774,-2.0816192921775363,-1.063603488676009,-0.21169634955041317,0.455271170799791,0.94173653479822,1.2664382754459487,1.460867177400593,1.55612324385338,1.5496466561677815,1.3770506932855402,0.9261627565219992,0.09990410076488221,-1.1104393974857736,-2.59591532858441,-4.166804966814998,-5.623536000390042,-6.8070289098786905,-7.608012197838316,-7.960346088502495,-7.841611641659504,-7.26980829664047,-6.2816739141542595,-4.912932218679248,-3.2125234007280055,-1.2840753395269646
-2.4659616125835537,-3.145794894589817,-3.644041898778593,-3.988686816095213,-4.037581810657081,-3.66141348350913,-2.842309196420465,-1.6929202815057023,-0.40938863527316094,0.7957569302803361,1.7420177578073655,2.301179485038484,2.401845274422566,2.0320544880145244,1.2421170312510412,0.13942700425934568,-1.1341533114367257,-2.4422212242224566,-3.6943113669388916,-4.859901991544137,-5.940911284801897,-6.918539336186106,-7.713554956459527,-8.191535020932278,-8.21157208150748,-7.686263007070249,-6.6160365007788915,-5.083704496623294,-3.225180930198047,-1.203165187276452
-2.5647033934175405,-3.2130703765605504,-3.511317188465175,-3.539751914997264,-3.317517225420871,-2.8695479049397625,-2.2136286936499054,-1.361737185003659,-0.34772011093246713,0.7490355825545321,1.810006656053175,2.701921848692711,3.289179687055293,3.4286753009642674,2.973588036489815,1.812184184889402,-0.06454532683367309,-2.504738103875563,-5.192314397291812,-7.7207781884993025,-9.722239946907614,-10.987136708205377,-11.504559777512782,-11.401472154519483,-10.828690819949301,-9.873490591777465,-8.549258112294183,-6.8531341831599795,-4.839712519857882,-2.655777701894303
0.9162267517357316,0.10681580789717138,-0.8230114238085393,-1.658575925402985,-2.2424496257767004,-2.5152817589155436,-2.5185920637944346,-2.3482790124964144,-2.079440262545596,-1.716565812228137,-1.209773563904355,-0.5201036311252151,0.324401080295214,1.2234836737533934,2.044898980759573,2.677371557364965,3.0656656055931135,3.210039557983218,3.1322086369897617,2.8360294367324967,2.299235156592474,1.5046495242041174,0.4810467173797669,-0.6833016260135328,-1.8621812517537524,-2.923914947804986,-3.747964726292118,-4.224922830761848,-4.263965104330059,-3.8269456141153944
-0.8101376288353508,-0.6973545765993212,-0.8312172433105868,-1.0816545760962712,-1.3444017163821644,-1.5874946614370438,-1.8448378854872112,-2.1552889701301194,-2.5033022737783095,-2.807045866068199,-2.95564702038192,-2.865856123931711,-2.524113651504358,-1.9929548779048532,-1.3803324543439646,-0.7890548190239739,-0.2726493907217653,0.18097662730268743,0.6319365048563528,1.1471970836482217,1.7553786277578736,2.416691262824729,3.0219679400615895,3.4261175976947964,3.504900878720619,3.205745999539886,2.563498503912198,1.6775149990931595,0.6738651187469227,-0.32213755211438755
-0.6445242643475133,-1.4462827658319535,-1.9327852518852546,-2.1476758807804432,-2.0758714836349226,-1.7147574953884157,-1.091602488784833,-0.2910653802784422,0.5381078914599927,1.2273738441723365,1.6599597908741306,1.8078781857269943,1.7006805362637254,1.358642917999263,0.757083204925191,-0.1441686091525719,-1.33695984807783,-2.7296590790700233,-4.1732198214755005,-5.520875711927255,-6.665108689344782,-7.52600660336212,-8.020657506588643,-8.06233625399699,-7.600493236145344,-6.663445183882422,-5.3610880705437385,-3.8448363223868123,-2.2584488005843744,-0.7121505750560744
-2.045278716405248,-1.2281812842177944,-0.5037577230057463,0.11178749737635185,0.5654058780091819,0.781414328991939,0.6980014862839053,0.3249203246062092,-0.22462042937296978,-0.769395307707154,-1.1449401444587466,-1.2703575664639088,-1.1503498010512736,-0.8329111811877987,-0.3786777440726259,0.13512941498202247,0.6072238843649446,0.9371956335221777,1.0724607225604235,1.0340374162240675,0.8987001562868742,0.7550888943447219,0.6622403895870339,0.624426850487954,0.5878485747212694,0.46507215184302453,0.18134807662339303,-0.28271875303973315,-0.8766443568646722,-1.4946250936040781
0.32259122693938735,-0.1958207641019689,-0.7409233704320339,-1.283102316983807,-1.8476065023305,-2.4786485796395787,-3.170328136129874,-3.8137423710857465,-4.21026699309331,-4.1573493745229815,-3.5565520674838527,-2.471736063223234,-1.1008003977711351,0.3116288656555015,1.559481788780348,2.51863515999419,3.1472345643219786,3.4559233490631978,3.4615637959805983,3.151643477532284,2.4931145859798125,1.485939903937459,0.21411166452890762,-1.1560039634820471,-2.4332274064667194,-3.472714092078732,-4.2113653205906205,-4.64727928182546,-4.7891041725390116,-4.630025729358572
-3.7547837672943807,-4.300820593172183,-4.308671103839351,-3.884011813354543,-3.0827056666025014,-1.9862038998241132,-0.7079021455775596,0.6184424886305158,1.8592723476331756,2.895659888387128,3.6263860887974437,3.968796999721557,3.8651522059287124,3.2931624698199977,2.2775822349132917,0.8984946102778286,-0.7148208360301266,-2.412016456039087,-4.057257256555022,-5.543790157200171,-6.780278082682134,-7.676502049696796,-8.156942694826762,-8.193376007033393,-7.820105146435582,-7.111559513417728,-6.139027688678111,-4.940257910200751,-3.523175588363317,-1.900578739905721
-2.7434013384427938,-3.098523581930232,-3.1031844815177165,-2.8343471367145274,-2.3339848375111023,-1.690778285967947,-1.0151953394392024,-0.39081378601191985,0.14906301114423276,0.602994854936828,0.9676130626077041,1.2228187232995769,1.3407791250007661,1.2967694460204977,1.0662210727887906,0.6178657431386412,-0.07714288682271364,-1.017220143932659,-2.143906146232294,-3.3420479931559375,-4.4718558525855014,-5.411432933796797,-6.081546818922008,-6.444392123562963,-6.490060404725573,-6.224543102829397,-5.6616816244990265,-4.819466389771595,-3.7233022695224047,-2.4128887855635055
-2.8018325737975682,-3.312970915811466,-3.417676765605138,-3.1711849271576296,-2.64709546826021,-1.9734075402862323,-1.2452724496211944,-0.4693393793406695,0.3901838484758932,1.301311851013574,2.0979321605351684,2.529843119031776,2.398100857939866,1.6725835057813645,0.506405839919883,-0.8572974328710095,-2.2154448888906004,-3.482884239671226,-4.675549644227933,-5.830413527828149,-6.9336595023913,-7.902489695752599,-8.610849514393752,-8.927169767697524,-8.751209208555675,-8.051088225741166,-6.886107372965842,-5.387884859415255,-3.6975235534531867,-1.9024554396597297
-1.9624707514477744,-1.5613783399999415,-1.1598880083899847,-0.8012221302391761,-0.5585155844967293,-0.4624256688884282,-0.4738199644391282,-0.5113696708029667,-0.507541757672387,-0.4499890004741394,-0.384417307600627,-0.3841188630311454,-0.505027386910319,-0.7454088314083895,-1.0288567498835581,-1.2255631667358349,-1.208653023660994,-0.9152463710974162,-0.3718062829563165,0.33168620818709094,1.0921168814788622,1.8248789107722414,2.460452336600757,2.92812984037546,3.1563709591368916,3.095418717083772,2.7451984166810357,2.166777747339433,1.4646397384729433,0.7470125596112189
-3.726349250809518,-4.655292758030099,-5.005237853613127,-4.778418101083783,-4.011807204587392,-2.8566899687525016,-1.5319767782652667,-0.2533161620573833,0.8225049765972743,1.6214657032536492,2.1382096300820086,2.393177730013102,2.393980549224176,2.134319205871364,1.625177631104173,0.9146381355419823,0.06419987186524745,-0.8969885600769806,-1.9850529364883407,-3.2156808560644716,-4.536478167212684,-5.801048018352031,-6.810605251605396,-7.388468188412108,-7.43219266369432,-6.921099540488062,-5.9003219575807195,-4.469633911972374,-2.777156240923814,-0.9978855870658332
-0.9402606928342873,-1.3430161940239391,-1.861903159243938,-2.3889130863306693,-2.832835501771099,-3.119893252233866,-3.187987230868713,-2.992021770797117,-2.5199811450474425,-1.8050433974006828,-0.9213537761995358,0.03689091941378819,0.9825232836925133,1.8524825250803376,2.6031430164995344,3.1889593909461684,3.5457148321211993,3.596676710806632,3.2792078810008,2.573247854993001,1.517151385134946,0.2104026148647331,-1.194791609285681,-2.521782430003928,-3.6250402070241927,-4.450204445732783,-5.046341185667398,-5.500401082398861,-5.835889432311895,-5.964599392364091
-0.8924056446367008,-0.07338318600455643,0.5586065787828541,0.9173685347349161,0.9237487545075173,0.5520317360399083,-0.14440517454874396,-1.018321487706102,-1.8440994304814016,-2.3852112174625444,-2.493462165266652,-2.1756085844941833,-1.5757906589985842,-0.8884521980837137,-0.26775311061982887,0.21352887233140871,0.5547425386583708,0.7985741124286868,1.0039452246427567,1.2208628173541065,1.4661220017677699,1.7114181368142727,1.8967085262977306,1.9637581252681122,1.8864696047638034,1.676479325078155,1.363125348625806,0.9674169307930852,0.49474692149723987,-0.04352664636636844
-0.7070294018137043,-1.125914728055041,-1.563374367405526,-1.9563731619722975,-2.2650599362200903,-2.4534304365563773,-2.474587365377239,-2.282890885869216,-1.868369235571198,-1.2784013772220444,-0.5981931681615953,0.09711184664354827,0.7756231619937914,1.4381963758999186,2.077611422122449,2.6485790046427553,3.0774577029546153,3.3014291349768157,3.29808142246576,3.075306127776474,2.6313685442697774,1.9299488525790545,0.9289362123450305,-0.3478001106356771,-1.7574748634653279,-3.0638538048497272,-4.0362946614338195,-4.549503143825316,-4.609948002298295,-4.303341576334875
-2.4705438114914915,-3.0454595884995177,-3.4393232272586913,-3.6365266049756233,-3.550266148177393,-3.1559377337047407,-2.498980081507916,-1.6541287754061151,-0.6949816193701926,0.2964422276564078,1.204940909639716,1.8847329992427297,2.1970268490805727,2.052647844689479,1.4340504135272572,0.39793807208323456,-0.9334568969465533,-2.3967900895151715,-3.8300223399400473,-5.1126604237703415,-6.173447847501245,-6.96043315177594,-7.407778516553247,-7.441648598500411,-7.026410920959114,-6.202080128715729,-5.066231060713399,-3.7150132704634906,-2.2077390504578123,-0.5933075115051193
-3.563434904002015,-4.202456027804097,-4.564174422590281,-4.718192356470206,-4.624981010387701,-4.238552434242009,-3.5488071171906577,-2.6065111354428634,-1.5263508434439914,-0.4665998840490757,0.4142202474047052,1.0070149589753545,1.270768178066428,1.201682296385054,0.7892084584289116,0.015125269023607724,-1.0995548750771205,-2.454500205009571,-3.8829179681950348,-5.203893904582553,-6.268063516851948,-6.974487634555004,-7.272849972012951,-7.1671422349625775,-6.712528347837086,-5.987472935297143,-5.048265381362926,-3.903682855798919,-2.5390241664296074,-0.9725316722579828
-1.3030644073979092,-1.8535928764671055,-1.998905135972283,-1.8381963124435827,-1.4770481244046607,-1.04236579189374,-0.6048370794519322,-0.15364807090151655,0.34876862967815886,0.8981921475777223,1.4375839719897294,1.895027539856483,2.2082959169159646,2.3095556861477364,2.1078491788174505,1.5127464025568058,0.49138188234806535,-0.8886437495647885,-2.4656663415413242,-4.033494042228268,-5.4013542637338645,-6.435055643641507,-7.067960096336389,-7.285157065443886,-7.094342812180772,-6.504131147720913,-5.526655270583997,-4.200143064487306,-2.6050736910827266,-0.8533214514332899
0.22310773803637945,0.47761522071396745,0.4639793370699714,0.13272263731018713,-0.4168140669373453,-0.9874681142755047,-1.3510184495725204,-1.308345931556551,-0.7478832837111585,0.28813777305345994,1.5544517648869034,2.630826698841759,3.0651716531065523,2.5855470092408845,1.2631106776639662,-0.47818277134336695,-2.0169380794131353,-2.7709789583056135,-2.4006967526243486,-0.90772618878045,1.3715878455150992,3.8426884864305144,5.782733945196503,6.530836322708419,5.715666613179078,3.434348301768492,0.28057252023134294,-2.8151366406110716,-4.878611775941407,-5.213352652240665
-1.686533155913595,-1.2924696468583223,-1.0251746096993664,-0.7646734752300574,-0.4520774613040427,-0.11713629649802852,0.13454499239715806,0.19377556817403968,0.036034637145041515,-0.24745659471986658,-0.5070310587110636,-0.6296662643077624,-0.5877214510600707,-0.41211030778791713,-0.13989192430476016,0.20162662767713357,0.5718941708626376,0.9034974808329793,1.1287084361347883,1.2223117608357594,1.2159262945586713,1.1718360270445822,1.143623723472979,1.150851197887946,1.1688597894215922,1.1266310971084637,0.9224998666692943,0.47158826653093516,-0.23072443912328522,-1.0759237012229668
-0.4509777972016259,-0.6695188743839766,-0.9696267143759913,-1.238700702097323,-1.4383486114983217,-1.6070390848758587,-1.8035324580563765,-2.0350077040592076,-2.224931966603887,-2.241442481534697,-1.958281642861819,-1.3042119447833083,-0.2838959037836287,1.0168980653714366,2.4343911103983915,3.7540080128256728,4.771235720560095,5.357274597520226,5.482522308286588,5.185491793265591,4.524729579604668,3.558771778767226,2.359602191761401,1.027229780706434,-0.3221146834208797,-1.5847337283138634,-2.683177014080579,-3.5512769843767007,-4.1112434650562175,-4.272361331086426
-1.6425640515873483,-2.6251339768465822,-3.1241919474834647,-3.1611168567501613,-2.7924835327435096,-2.1710364267253524,-1.4721208986109986,-0.8106725465076203,-0.2135230063125931,0.3445429726332078,0.8779510738751622,1.3456633349473104,1.650675816550704,1.6833450130431986,1.3812972263374854,0.7611107513634965,-0.10804590848378887,-1.1674918852003762,-2.4053697304645123,-3.8226740134713078,-5.355960456206976,-6.830920990423328,-7.994369753421976,-8.603498052881974,-8.511455605256794,-7.705548051312531,-6.295517134160919,-4.47243454050738,-2.458237717847775,-0.46093914523221813
0.3442623881880622,0.39411442396311835,0.26814313456770933,-0.04154455726669504,-0.4928248793592973,-0.9855948006125022,-1.378900643896536,-1.5353997856595807,-1.3719254785783574,-0.8840668364271775,-0.13544668204651145,0.7689563636483514,1.7080371449864105,2.5718151258488113,3.2943886237782043,3.8728422559775275,4.345017824710071,4.730627286163829,4.9806695968982675,4.9816678848344464,4.615760781364063,3.828974566760065,2.657336263579665,1.2038603886244659,-0.3997227192843351,-2.0138338773409816,-3.493230139791011,-4.691707624504988,-5.485733205341216,-5.811608198957677
-3.715622059005556,-3.8929280629701397,-3.588854333154955,-3.0173288855680047,-2.301228999221946,-1.5011970089554931,-0.6295497600498077,0.2973337033064323,1.2067568054675937,1.9609635935033762,2.4010604427539257,2.4137284581501235,1.9770869958074118,1.1606131210972745,0.08860240627789628,-1.1008645923543439,-2.2788101992985546,-3.3371470455545493,-4.209222566789166,-4.896396831099915,-5.469629093784755,-6.022935984127703,-6.597674111488556,-7.129483866692565,-7.460175962235239,-7.4124491437481215,-6.88118962180312,-5.884575522199341,-4.549242586212005,-3.05086707909573
-4.530802172021938,-4.941791217521449,-4.9690556498614225,-4.8063322276841935,-4.484893917682986,-3.9795018756311635,-3.2765206588810383,-2.403437496956806,-1.4060123825089283,-0.31607496285026926,0.834433771129081,1.9508955527345757,2.8274685678918416,3.183050491760794,2.789319542597205,1.614952067607455,-0.12151446655185444,-2.0415847660002715,-3.785238414109544,-5.157442816833212,-6.153819524671121,-6.8734185570043085,-7.400265763173079,-7.733131236864098,-7.789740147709252,-7.463676331720036,-6.694179561924211,-5.510491855868248,-4.026297523565205,-2.3912226635455442
-2.6387242875583268,-3.13302443772579,-3.203691470122638,-2.984848495141142,-2.567409775883934,-2.031133611904694,-1.4185002714762043,-0.7362155113842983,0.01648185867917546,0.8152994721269816,1.5922073799343313,2.2370140492739017,2.618086442895169,2.6162247549035076,2.1615152732764784,1.260536651376795,0.00026505359573858467,-1.480736390139828,-3.0445103124550554,-4.594861578167847,-6.074073116749197,-7.421046248058628,-8.534200024299253,-9.273920775106337,-9.49933188536438,-9.112787084406014,-8.095904863940902,-6.530789616296815,-4.5930127167601595,-2.5053601677490343
-4.153644099051409,-4.806303457807591,-4.994446451277428,-4.819338011024836,-4.369007378199766,-3.751421260905012,-3.041137058520622,-2.261067533860394,-1.42017515565723,-0.5633445918369893,0.22067270339977307,0.8401273958916049,1.243681711205733,1.4178689353655773,1.3424614739322993,0.9568523479662052,0.18177510410037012,-1.0135996067787385,-2.5503577695240267,-4.231777810820876,-5.801621024708468,-7.0401705259517815,-7.839076613005087,-8.203266530559993,-8.181764946817081,-7.787357899954203,-6.971150630683557,-5.669260081625287,-3.8843472588236674,-1.7456086955192203
-1.1554973574628997,-0.4490341940202053,0.3086984553489618,1.037309705087471,1.6402240577319558,2.053907103530789,2.242443206457823,2.1836084138464953,1.875085707546063,1.3526688308050425,0.7011083122193413,0.04660276763843463,-0.47443038116965,-0.7641075127571051,-0.8019095033622292,-0.6444557583238194,-0.3875569466246876,-0.11959896867332173,0.10924588924901141,0.2959316088590348,0.47120514326729324,0.6660101734686904,0.8757148358478734,1.051928712470736,1.1316204695089356,1.0770185694256407,0.8907368099854194,0.598674733002685,0.22354984539722,-0.22641151045810873
0.5067840594722589,0.9096068096407196,0.8285203570811465,0.404568964407102,-0.16254699812022352,-0.7016647157928619,-1.1299437192012693,-1.4550709399881943,-1.7334953800839923,-2.0181468256655783,-2.325481154080584,-2.629124609910951,-2.8694539708106435,-2.9719790428163178,-2.8760248983075725,-2.5665726982433874,-2.0865036589695136,-1.513274017682062,-0.9162935752502894,-0.33432464801998485,0.20606948507786083,0.6552923340017258,0.9347824610118098,0.9772832628940387,0.7807826023727189,0.42641797048299357,0.040134612057767916,-0.27771538622401615,-0.5080774486529697,-0.7176456808584559
-2.1837829430802906,-2.7810862364074915,-3.374197513489847,-3.8044006979581857,-3.9277916919169513,-3.6794057486846206,-3.1101112762646297,-2.3707653352689073,-1.64573456395213,-1.0626665650444087,-0.6256692293015689,-0.21780617648863834,0.32021256524474556,1.0823298387771998,2.029154111455167,2.9980923177526613,3.7754080994770995,4.179447883620163,4.111561851072656,3.5648279212827587,2.6071163021061396,1.3572995082014785,-0.038299826899200196,-1.4302385008852148,-2.6897670253891217,-3.7237677194803407,-4.473127876923401,-4.900325614538972,-4.983426629802768,-4.725923613570988
-2.30297933552277,-3.025597534096399,-3.3737910867264045,-3.3707137770283517,-3.0211984357236066,-2.4026267698169304,-1.6585056314692592,-0.9572801904242786,-0.4223207790265431,-0.06513424595023254,0.22027639875710237,0.576575062046949,1.0646718433202826,1.5951247656307186,1.958495784142468,1.9291164218881631,1.3730429987808606,0.30317916958798197,-1.1332466034771125,-2.7145541257226915,-4.217992865516336,-5.474058657578723,-6.380465633992065,-6.878992196964224,-6.92695435891912,-6.499211817166771,-5.622171391163111,-4.399835915488748,-2.992893703316153,-1.5585296397331143
-2.4426298173156247,-3.2263163231357073,-3.546256088364777,-3.5469231041955958,-3.2877671534939723,-2.7919409962286186,-2.0626662178993995,-1.129872758912012,-0.09918135546261346,0.8445415613168337,1.4980122719936735,1.728982482632152,1.5293758478041186,0.9941240908998835,0.24561694482766572,-0.6402720512654245,-1.65977643404249,-2.8470702153742358,-4.204465455011281,-5.644644520941816,-6.991747640497679,-8.04846112550347,-8.677444296514459,-8.828349890297307,-8.497916988820565,-7.68297957648768,-6.38864243302368,-4.68408122367245,-2.7413492200612013,-0.8089294833248053
-0.986421415631072,-0.32612840766193074,0.12978659750679977,0.3065805695746776,0.1552808223276238,-0.2737987261147385,-0.8203377597526815,-1.2795058343164754,-1.5045695986884084,-1.4699174250580742,-1.2478811055414991,-0.929986178336355,-0.5704658877240932,-0.19639964337044002,0.14834451260745563,0.3919866961099142,0.47731894088137794,0.4112022533706294,0.2659172261355597,0.13189386782445256,0.0689988444969194,0.09263963709201639,0.18752860149562345,0.32253613466236875,0.4564135466370314,0.5428639550184939,0.5412165836130823,0.42678302260633133,0.19265471464977957,-0.15554033093587183
-2.546612358072249,-3.06392046947349,-3.0678608202565867,-2.7098980442849943,-2.0778630852271496,-1.2352586091974906,-0.24271671111204296,0.7967952695045684,1.7249226908661286,2.379324530906608,2.6713934154145,2.617912205208713,2.2954893019974585,1.7609981390723797,1.0130372456027588,0.027120022308020464,-1.17551186038115,-2.495317381727132,-3.788317107975251,-4.933206677243454,-5.873918047444481,-6.608108410404761,-7.138593717533059,-7.431005816129788,-7.412591937519808,-7.013252255611791,-6.2162404072706225,-5.080172761265508,-3.720091869227008,-2.266423656849534
-1.8395322938582455,-1.9815379612000439,-2.125556230031291,-2.2642345118552103,-2.3838857733656,-2.483899571925614,-2.573046576939735,-2.638143085206741,-2.617235327730764,-2.4147895575051397,-1.9593568261059602,-1.257566294524199,-0.39377041485825826,0.524171490890454,1.4180272998677292,2.240838698172804,2.934473848202303,3.396253635471442,3.49715467214109,3.1451413569984625,2.3477241126144084,1.227967547945807,-0.01677103467282437,-1.1844577805737457,-2.1249201698953195,-2.7625022330151454,-3.0923532059322714,-3.164762759674824,-3.0589050058364196,-2.8424555792763053
-1.3344055018314562,-1.4760779475575703,-1.6401359949854495,-1.8313311931564233,-2.0271749028784827,-2.1949077347085564,-2.312115137886537,-2.3590318556501417,-2.2924806496125636,-2.04013165399181,-1.532571336154229,-0.7500903636378686,0.2499602566242219,1.3397829846980298,2.357653030396935,3.161768308356286,3.678114396876275,3.912359113883377,3.9131549901660843,3.7101864958512007,3.2733674621910605,2.52781942422853,1.4190476368739096,-0.017398242001748887,-1.6336583328214986,-3.2095956895150737,-4.523761499937976,-5.412007324848307,-5.794523961197267,-5.676602447052257
0.3841454379358763,0.13409568476781872,-0.16280344945366843,-0.35654830163610085,-0.40740099874818503,-0.37693773035510114,-0.3620365064076347,-0.41563988367355104,-0.5198531237554365,-0.6264641351176448,-0.7144697718649367,-0.8012978824939436,-0.8967830899462486,-0.9513908893277607,-0.85678721445937,-0.503712455073676,0.1496777665667508,1.045021736979414,2.0350438352316003,2.9237169788761648,3.5249787784100857,3.732636654332171,3.574042643721553,3.202922433697793,2.8131984318848917,2.5199137029572665,2.292664190123682,1.9898904286997317,1.459709348369528,0.6297034591330157
-2.4829008980148797,-3.21306375287483,-3.464132117577226,-3.3060050482710834,-2.79553644646807,-2.0304178856732658,-1.1332663575490138,-0.23252573551713984,0.5579337517009834,1.1549774336000476,1.5082462617194075,1.589879825341611,1.3873547650187987,0.9098717301136389,0.19735358193538421,-0.6892629621850206,-1.6972422129130718,-2.800946210213039,-3.9830927043073547,-5.19244076739317,-6.323479637495179,-7.244107851032727,-7.8490306921759005,-8.094202464436254,-7.988852652013862,-7.557906543945848,-6.807027277408553,-5.716226066249324,-4.265671888413003,-2.4766958169087667
1.7886491031178426,1.6737359060501822,1.497026728542183,1.1281587013741683,0.4886294402149831,-0.3812774313187579,-1.3308503913700434,-2.160932062873334,-2.68592040572885,-2.7672162937264924,-2.3354229639821575,-1.421483495027736,-0.1747437770930742,1.1742038625779587,2.404997910095624,3.3921383365764277,4.118654533585901,4.617506655802109,4.900943582393469,4.936435161861478,4.674430704773468,4.089262325732747,3.196975606935055,2.0463772917210603,0.7055530839824808,-0.7354723345611811,-2.1506401362779943,-3.3812467517735185,-4.278804470682396,-4.768255347668072
-1.3676945874634736,-1.9438506318148683,-2.641338146078144,-3.279098299654851,-3.634434383224734,-3.543849807809555,-2.9875213898103663,-2.1135298334067043,-1.1765869917359562,-0.40968198195817207,0.09602881296369548,0.41913054102545183,0.7279344158101964,1.1586251672268966,1.7317164001642067,2.3373536283374627,2.7771291207005007,2.8462790428809783,2.437400529243887,1.6155472762376664,0.5977595325360205,-0.37340983773168657,-1.1735144554934416,-1.8365562113651102,-2.4618722562846385,-3.083809978212158,-3.6292348776876535,-3.99140477003967,-4.13288062443053,-4.111843536683827
-1.1799842566610224,-0.9999900565468971,-0.8664161057160451,-0.7710596062898409,-0.7634578419161637,-0.8896016707514129,-1.1460719463081503,-1.4740484669680067,-1.7919432726561775,-2.0366341455624117,-2.1800939915474387,-2.2110766651363303,-2.103176522459711,-1.8067585225495124,-1.2836715241053462,-0.5590243993514865,0.26213694533223675,1.0370343388803283,1.6521411585892871,2.060393528904841,2.273293162655702,2.3369660967454613,2.316688424792595,2.280947249018614,2.269541932337446,2.2589753379751545,2.160163315634726,1.8669765902854967,1.3317127556545965,0.6139190290164049
-1.9737366339566877,-2.996508454424672,-3.7703767823369465,-4.244723487449613,-4.291278008784719,-3.846436216976011,-2.956464156225047,-1.7736854033330365,-0.5116437297418953,0.6223041690119822,1.4885234332856825,2.0419674730710007,2.3092817073854714,2.3294858614027563,2.099317013328152,1.5643258823628134,0.6632869032240791,-0.6055877931410054,-2.1418338648324307,-3.7504117111748885,-5.1922284872482045,-6.244929967725403,-6.747498112154849,-6.629046651619362,-5.932529755453388,-4.82243816654322,-3.545477390220527,-2.3356595814349745,-1.3104694715888057,-0.43416203496830863
0.39393176740419544,0.11370669503754294,-0.2167028701061373,-0.6585074896655759,-1.2469316779585424,-1.9208892804236979,-2.529946305197271,-2.910662987083948,-2.9661567726963596,-2.691597444682492,-2.141470576351037,-1.3801471264728338,-0.4631030157230914,0.5400793559375657,1.5168892817427093,2.3228443789478304,2.8363935212886204,3.0148617207631716,2.906219992236907,2.6098026278895263,2.2157850757396975,1.7608405656264532,1.2203480749830633,0.5352174311405657,-0.3416267882568067,-1.3979756246152686,-2.53487196039994,-3.5766523196423745,-4.3210513258003775,-4.609688021315082
-0.08972325210558506,-0.7565631277820569,-1.3841138003127853,-1.9152530862643733,-2.2970815817473604,-2.480041571691323,-2.4418853244748093,-2.209160900225716,-1.8446753521334984,-1.407526428306656,-0.9229731562565999,-0.38448512294256354,0.22601976211091496,0.9233545733991366,1.7104885513305599,2.5591331544298077,3.3760195970207914,3.9829288939668768,4.151361371830865,3.701863383860801,2.6181273664656994,1.0907131423965941,-0.5589234969470884,-2.0332458388601937,-3.184686964452178,-4.0279010836098355,-4.6483302695245925,-5.0964228023882026,-5.348490535776618,-5.338814519530989
-3.0923716586467473,-4.068133058096507,-4.588532639578731,-4.689088862067891,-4.3667152547549275,-3.695034163093471,-2.836829841094854,-1.9953718176685522,-1.331145284095018,-0.8969911367443513,-0.6379215038567456,-0.45885407567493663,-0.3156280407800107,-0.26674647282048713,-0.44760596205543535,-0.9814794719637814,-1.8884445327715293,-3.057443106868761,-4.298551681370711,-5.430478433965662,-6.3378527741823705,-6.970116064610811,-7.307132118797493,-7.332447990058818,-7.027517578085236,-6.37273799426592,-5.3476093859475435,-3.9440400878839887,-2.2034648499139,-0.25622363372560875
-0.3343311282938744,0.48142703186423075,1.015731583682561,1.2794354906425227,1.2850165243808345,1.0588458074330342,0.6605010420921522,0.18796538057812745,-0.24893204426125648,-0.5647586191841003,-0.7108950601659076,-0.663579401998933,-0.4167701452077164,0.0029809204573458814,0.5188295088911086,1.0193847040402808,1.4177091494983478,1.711552145742941,1.9811651048591743,2.309516057710952,2.689621174005583,3.0053805595141645,3.1043813832831133,2.8958030973751434,2.3936725514415036,1.6890768090008925,0.8969202931316407,0.12127763189850072,-0.5596506964409971,-1.1069257311865348
-3.708716309410626,-4.445181868164926,-4.570598223564744,-4.218167478133684,-3.4878300329031644,-2.5109106123108247,-1.4417693953913493,-0.4313495579672644,0.40477290319095693,1.0055020341223908,1.3592881359356155,1.479510313955966,1.3740719729462292,1.0255489479423283,0.39560030229771526,-0.5447979432575685,-1.7755397198353144,-3.2025966676394297,-4.665255220477313,-5.975827978735422,-6.975051340972879,-7.576716705940212,-7.781173883510399,-7.6551114936478095,-7.288878403087314,-6.747112076163512,-6.0322446787616375,-5.0830650412920475,-3.817393036762499,-2.19946902358158
-0.08850572599420771,-1.0228176546509447,-1.9017286032655185,-2.5934679917790016,-3.032357280621371,-3.212656675702907,-3.1736353146147596,-2.971690779576016,-2.6341213782383592,-2.1249376656011405,-1.3710165607218407,-0.34674044889923894,0.8568449596591905,2.051326174515151,3.046615651484449,3.738284179972342,4.119820735199906,4.22921771247645,4.088561919264359,3.6847580851268096,2.9977060703765703,2.0453658473819645,0.9039483960247737,-0.3158818862233738,-1.5155441388969844,-2.6371055243398893,-3.6541597209098184,-4.540377839623422,-5.242968720450458,-5.676110695504237
-3.463506434194536,-4.1137000212688895,-4.219583836828325,-3.9660928688825283,-3.474579969326977,-2.8425585319146145,-2.150989212959539,-1.4802791523499477,-0.905375553850974,-0.47002154676127805,-0.17384327179699577,0.006999659646524714,0.0823007827824167,0.023463141763239603,-0.231850943848382,-0.7460022343937152,-1.532806711077093,-2.526670573264708,-3.6009686664607217,-4.627798318270465,-5.528323296844895,-6.269756663046554,-6.818390006813383,-7.099594389074507,-7.004703380073109,-6.440408413743781,-5.384573344160801,-3.91340553948413,-2.186810605669515,-0.4039110089892415
2.3109106216888553,1.698876167387648,0.8064175495052864,-0.17194219724640658,-1.0236825922220976,-1.5967024024189367,-1.8482575796037874,-1.8300428561854267,-1.6158704535418529,-1.2283826447917603,-0.627595601963768,0.22749748740075776,1.2975483329870046,2.433955608234622,3.4309880506625072,4.119770435623358,4.4344883796848595,4.4122174110084655,4.142320477289373,3.706854878801114,3.143244893316578,2.442593349306307,1.5823209828854292,0.5723338714801962,-0.520170109514484,-1.5877153531699078,-2.5252184767256467,-3.26088709359869,-3.754608968954376,-3.978276354127481
-1.8177549628793228,-1.3583912764680823,-0.8435989946525507,-0.29900386250138355,0.1897385665487507,0.5399302865965144,0.7100870539610805,0.7102554207243645,0.590069871770936,0.4161999852304218,0.24837170329664837,0.1200530777966522,0.032430316996099995,-0.03031681713344425,-0.07213780172228446,-0.06930092833125345,0.01301250277274979,0.18732876951537122,0.43060449762604414,0.7060319876688731,0.9953089806617446,1.3043245127427894,1.6308192489980138,1.9217700852608328,2.066786086794993,1.9490905471884354,1.5223237202122901,0.8516882159602254,0.08665645656221033,-0.610149419147467
-1.6054296464712137,-1.4855404046963108,-1.3304559507259806,-1.301173187379099,-1.4480728025984424,-1.7028216132209,-1.9006351053711308,-1.831336520382608,-1.324931195474341,-0.355129833474817,0.887036501211859,2.005716934218008,2.5255113216775813,2.095900689348518,0.6820403020342647,-1.3636039257283061,-3.4006224586678657,-4.734211774194264,-4.878770663757836,-3.7377595577777702,-1.6336459802924514,0.8047591932218374,2.8372914789690684,3.824107989753747,3.4110119746015513,1.6548542589055983,-0.954097432257691,-3.6072879364260437,-5.416094183435004,-5.700917091532312
-2.0232966065127576,-2.8624888514253306,-3.2485782539068695,-3.2330054010744824,-2.8265582320229585,-2.0998300179211817,-1.1853866073394963,-0.24408318619704084,0.5803811565140145,1.1967271665229564,1.5721152257728137,1.703487824348441,1.5767103608025623,1.1520169628081198,0.3925238042999952,-0.6885309417540248,-2.0024365852266115,-3.3999068605731275,-4.712523532312513,-5.795786304161881,-6.5583625992234555,-6.972728394598966,-7.0649272350181755,-6.885496865577682,-6.476742601116536,-5.858928008733505,-5.0414199395816475,-4.038069134445832,-2.8662015193238437,-1.538684662529965
-1.0637479284146838,-0.9194344082162181,-0.7964699187887819,-0.6477496741625416,-0.4802079231204883,-0.34230265837587887,-0.3103246205599141,-0.45458741638557676,-0.7905722441021444,-1.2457982511319643,-1.6764080856908814,-1.9329555237005926,-1.9304366534000845,-1.6721708910059758,-1.2205430708341878,-0.6520645659148333,-0.03281651813077502,0.58461544118915,1.1623866963669207,1.6846753223462343,2.158939759668808,2.59855992639871,2.9933376291505907,3.2911710770127964,3.409026962717597,3.268219630315923,2.832261109057187,2.1280984114425747,1.2409790587909981,0.28020804182722164
-2.99844727031895,-3.4692696333502764,-3.4904033054378973,-3.211065135033498,-2.7254319177269704,-2.1149479174502686,-1.450134275600378,-0.8039753880734829,-0.25308848532700645,0.14664329341579607,0.38597254547283066,0.4914377702526058,0.47424262313436727,0.2838052908838249,-0.1843955913831392,-1.0223661383526397,-2.2275930376194126,-3.660694281829463,-5.077293429171576,-6.22773920116981,-6.969581708504293,-7.315896793852236,-7.383535931694212,-7.28568206561307,-7.054513708204184,-6.641210914921964,-5.970925718841513,-5.001016018358914,-3.749918655267252,-2.293337398973908
0.5075904505116208,0.0771867968131088,-0.5355671356329704,-1.2682981364997297,-1.9949999029082086,-2.564210413201433,-2.849368192803367,-2.789842419497842,-2.40209663370259,-1.7495192535645547,-0.8922537546421214,0.1347972636244692,1.2902360266252066,2.474031428171591,3.5175361248560666,4.240015667388271,4.5305506378124285,4.391529566246101,3.917593472831686,3.2349812718647355,2.4443224542566178,1.5949226677809833,0.6947900830093561,-0.2583343726691961,-1.2495276527238164,-2.2408625533719193,-3.1826362828856953,-4.019467478154529,-4.679209087778268,-5.060126943408846
-2.4869637408724885,-3.3239699586820453,-3.8322133167003036,-4.053316621752931,-3.9583066782573697,-3.5483838741712592,-2.871188865917178,-2.00641605005297,-1.0436524974060248,-0.07626527309432096,0.7910094501825673,1.447908186244902,1.8098738516324313,1.846152343772417,1.56859873431781,0.9906048005831687,0.10732847347370733,-1.0736631840826898,-2.48256870264157,-3.97161868287385,-5.350171784928935,-6.443535453917664,-7.137586046857495,-7.385939468139949,-7.1811651430489,-6.518763876365117,-5.3902832202029805,-3.8131747038323716,-1.868662062600786,0.2826211933314453
-2.620724727040732,-3.510328311951119,-3.9771826045863805,-4.065370798444907,-3.8450761227286545,-3.4200868642903495,-2.8421296620808816,-2.0942173530962975,-1.1610909990018357,-0.10526073741903108,0.926392417091994,1.7595609978464657,2.2574673931468388,2.355660898756707,2.062048150348064,1.4303598014798364,0.5223939427348039,-0.6143502930820821,-1.9344155292583802,-3.361909967429629,-4.7749088255873815,-6.022798103227089,-6.9546908129875185,-7.435687367242706,-7.361968028033326,-6.697466518480814,-5.517837909815995,-4.0123268533029375,-2.417773815153764,-0.9221772114910898
0.9621252742305868,0.46995701749870034,-0.03403877045454018,-0.47216303254060876,-0.8393740787214221,-1.1553810453377944,-1.3991211513450441,-1.4905312798532564,-1.3397844029146415,-0.9183113872890423,-0.2865190696279225,0.44164625183949596,1.1572012223752983,1.7850224111200435,2.2714753678305364,2.563316004044356,2.6124021663892263,2.4053042488228265,1.984005993802025,1.4267256376835862,0.7960137785732773,0.0997081420936956,-0.6937554139353366,-1.5955191238312083,-2.548887839247959,-3.4383347318476765,-4.139425291133579,-4.559393859704044,-4.644311586890194,-4.372503613625131
-1.2904060984973762,-2.324220084333897,-3.012186718081327,-3.2809851825184766,-3.0469218428470737,-2.3542813639332345,-1.3901683556959186,-0.426669961350231,0.28312482875579914,0.6042822492668336,0.5592853299173707,0.28582023703288595,-0.058931378658131806,-0.3908263060432997,-0.7367282523417855,-1.1983131713379322,-1.8701712185774706,-2.776172205911214,-3.868740107566243,-5.069616755727025,-6.293022223050012,-7.429858039691789,-8.332203130186485,-8.840525780525432,-8.842441905370302,-8.313192907945988,-7.308083250496844,-5.924448522724651,-4.27006901215348,-2.4552783717998716
-0.7440404480521472,-1.4830104213804942,-2.231514997892897,-2.91927371994468,-3.5083228811890144,-3.963514663071502,-4.221604188496402,-4.19585264424286,-3.8179314674008906,-3.080767924971357,-2.046218195407287,-0.8185775124279838,0.4841158025896135,1.7384242465791073,2.8146085731799824,3.5901940909965413,3.9796104818971,3.958705443492361,3.567482954522624,2.8909907654682363,2.0251764721072485,1.0402539092029044,-0.034208847353515814,-1.1842938481980743,-2.3645576089890286,-3.474075077377605,-4.379730102531738,-4.96244513170432,-5.146470608089764,-4.90333712005767
-2.6133566848031764,-2.8330385366510895,-2.6222586033447417,-2.1173281293166593,-1.434487271973521,-0.7092845996530643,-0.048445414992690505,0.5041095906510726,0.9550685789394573,1.3175546341735491,1.5761389658475082,1.6860263542172258,1.5933621029634637,1.2482224970466365,0.6036030625929002,-0.3789304075929242,-1.699779161627351,-3.2818628871376934,-4.9572850010742675,-6.503836797991009,-7.7169926617556674,-8.472661340966008,-8.742291356161953,-8.561270443838405,-7.985444172052555,-7.066289003004975,-5.846795961066464,-4.367149159762781,-2.67854197477693,-0.8647630023889771
0.680407192264934,0.5056578764147,0.30551106914283255,0.19942985636727317,0.26894852397730507,0.5100347868376343,0.8227753191444602,1.0603220851464252,1.1179112217979643,1.0049189251290724,0.8454198485355549,0.8003322077030601,0.9626938784138543,1.3010876441517314,1.6921419275118752,2.0135479414194792,2.2212061004892565,2.3521376962707086,2.4620353975558764,2.5576227183683224,2.5750161878951188,2.4074619514476017,1.9531677938299,1.1586937416750756,0.05046767654761708,-1.251878949933667,-2.5538307512001763,-3.6382636658136662,-4.326009648067484,-4.510277714394552
0.2728045123747168,1.0747457937280331,1.6853497602024203,2.0982050448950766,2.262864352936505,2.140076794863786,1.7338353541657183,1.0977192808570955,0.3267238441905801,-0.4589595908744702,-1.1406414472086734,-1.6318028584569761,-1.8931957304559721,-1.9230090013003935,-1.7381909581832098,-1.3681114772458054,-0.8588166845374825,-0.2694255703403232,0.3449353568003783,0.9482989395060225,1.5216247741463251,2.0444596256439387,2.475367000824792,2.74837968560437,2.7939295942806623,2.5748504347760024,2.113794059587354,1.4918356259366068,0.8152950210646445,0.16613755965812682
0.6315359922598154,0.037198476719380036,-0.5772771985409089,-1.1713605509503378,-1.7158091674545164,-2.1867467561193625,-2.5591554154540233,-2.7921257524922933,-2.8162072728952747,-2.550177316681735,-1.952191954329959,-1.065089335993463,-0.010273078099517496,1.063728929456658,2.0268071718272083,2.775506192527662,3.2262409898188733,3.327840583739045,3.087223010380285,2.5732266713992304,1.8870721263465806,1.12518973959119,0.35970594525183686,-0.3659465909571643,-1.0383050350478042,-1.666910147984443,-2.256204145787773,-2.7659298059312487,-3.095531625910121,-3.1189808721735828
-0.7516584444855884,-0.1680642499189124,0.0832417410181707,0.03662800110876882,-0.20303033091271858,-0.5127436934248667,-0.8179784967309531,-1.1080724221417475,-1.397925900224203,-1.6776019390192443,-1.8911654880999293,-1.958834233296672,-1.8260678600800455,-1.503622262607494,-1.068316745848578,-0.6252810436131658,-0.25981987521546895,-0.006632444512365349,0.15271352034282137,0.267038757976544,0.3817922477057625,0.5164535733030893,0.6656596344542847,0.8114865548472028,0.9235925561898234,0.9463136065252807,0.8014373340862653,0.42863929700977926,-0.1588590229025651,-0.8548797514539515
-0.5053748738842746,0.24650140030089415,0.7656579212340231,0.8303569650763891,0.41056407759294783,-0.3198260615229041,-1.0423244643650706,-1.4180717499645428,-1.236639390470699,-0.5219552695151992,0.4596850792890066,1.2926853335426591,1.5621149765678228,1.0083616309930843,-0.35348185871656096,-2.189820551805033,-3.9203197472901,-4.907674831174354,-4.7011185699196885,-3.2282398615069408,-0.8515870120306346,1.729139255077448,3.691197645045894,4.3533805870409745,3.413776809898028,1.0802425516118896,-1.9651933008358122,-4.770343953689686,-6.419108085113089,-6.330382015197361
-1.5661492758017947,-2.4915428279401164,-3.0160783852097905,-3.210646623599319,-3.083144475664436,-2.6591992724757985,-1.9915898211732406,-1.1602841980256935,-0.26614431914096964,0.5842057368666735,1.295052213083117,1.78545900329189,1.9787178842948332,1.7962054231869684,1.1741214595449678,0.09799573015801516,-1.3685320974871358,-3.079395892800293,-4.83028928773726,-6.405720158994102,-7.633579393382242,-8.420101546636406,-8.743017621354895,-8.612534106945192,-8.040706468486569,-7.049892612756539,-5.704002704432717,-4.1169399090656835,-2.420154114080178,-0.7211829263094018
-3.486038172627666,-4.184900630354008,-4.49772971317422,-4.488264509705369,-4.111430401871189,-3.3244236938604903,-2.148427152470401,-0.7033866619004008,0.8083544892827674,2.16112622467403,3.169127619940368,3.7223467198278657,3.7918362677182493,3.4130262892616443,2.6525430080156447,1.572208368541543,0.21785320755647297,-1.353519717902514,-3.0344671144133755,-4.658782717859285,-6.036297640642659,-7.00339357849452,-7.460039094477949,-7.389080394857149,-6.861390219725699,-6.015705747527596,-5.0023258437195075,-3.9125939490730812,-2.7455122881949494,-1.445450298389515
-0.8059592937662412,-0.19103466735232877,0.40406287467576846,0.910334946505308,1.2528481340706379,1.4036411278262961,1.3794862580598959,1.215314887543782,0.9457988481280236,0.6065231228177094,0.24218746412367032,-0.09526945845127321,-0.35790572404602783,-0.5058612590107797,-0.4988395487369589,-0.2933342372920934,0.13786675288644157,0.7766241008233058,1.5479361113596721,2.333629555647777,2.999493615203643,3.429939274372593,3.569820221460871,3.4539547404402318,3.189791769564933,2.887505103472855,2.5859067134385683,2.2374841794871814,1.7642572035592268,1.1295503588774158
-3.362955092705584,-4.011633564425907,-4.235802669230178,-4.122634381456552,-3.6687314065695893,-2.9113738022375335,-1.9737344849596294,-1.0292025666372402,-0.21392816452739155,0.4263565938970255,0.9058145159368423,1.228648549738668,1.3597399083590407,1.2543624680647076,0.8940277590389705,0.2824083278496465,-0.5818419104851245,-1.7079128064607065,-3.0773949341121565,-4.602029710894528,-6.111084334141703,-7.379283281246162,-8.185373420855102,-8.380794998935839,-7.937772416218677,-6.947791811285065,-5.569929603867703,-3.964639377101605,-2.2548088055926616,-0.5269309712959354
-2.761969952974101,-3.6025893945090144,-3.989153550452102,-4.046153575338975,-3.818066620121678,-3.326895871908548,-2.5905687979133405,-1.6507218865651012,-0.5912011684315964,0.4653822606457882,1.3789260727931656,2.0176920916126595,2.276383864391055,2.0842122836130983,1.412928530198371,0.29199513901047297,-1.1811142966571664,-2.8550135135863286,-4.560832589633632,-6.144299881463854,-7.472731034563692,-8.42551772561927,-8.894428631705846,-8.806927644631347,-8.156427581454924,-7.011340175745704,-5.494968776609545,-3.753910083554437,-1.9310623834659888,-0.14332199327017214
-1.772780865242167,-2.313051169071139,-2.484770033686268,-2.458055995873112,-2.299311322027297,-1.9952546734854044,-1.4901147277036475,-0.7639729919676526,0.12425494636818682,1.0600324213398948,1.9185047041337144,2.584647666383073,2.9539237157281413,2.942611408597366,2.5106312880554507,1.6763665388042708,0.5117196329339042,-0.8767095552092827,-2.3689689495485298,-3.8472470480458156,-5.202369898973915,-6.333502260630807,-7.145310235737341,-7.547644176644308,-7.465258474788787,-6.860195533258236,-5.753153797107045,-4.223404920788448,-2.3864636915351016,-0.37267465119272847
0.8300309451796375,1.155080501480538,1.264916903586305,1.0072356563258664,0.44137156795466587,-0.19293299090841265,-0.5774666354170175,-0.4447507674832766,0.3018320265809598,1.514849527596629,2.818049837809989,3.7248470507523215,3.8199791789574506,2.9275939151685657,1.1995913723476659,-0.9066850829729984,-2.7599059129712535,-3.759818298657429,-3.5439898502960943,-2.1161661498492066,0.1457303654806869,2.5907597005032645,4.467281125019855,5.129943748527773,4.246163304900479,1.9490547382321963,-1.1379967702272817,-4.062419910307703,-5.863829531142961,-5.926093176048109
0.36709100606903505,-0.41023478218353016,-1.3348529271551133,-2.3686373964962364,-3.43166925851013,-4.38739995282396,-5.06716445414818,-5.319761076226303,-5.0642013528654495,-4.323177003519941,-3.221187627374109,-1.9468859845503268,-0.6947878155756574,0.39235201191290736,1.2585632446807018,1.927102655419147,2.447032544248663,2.8257904436136494,3.0015414053288714,2.881451206791743,2.4128623667562024,1.6269967507641092,0.6274062596567247,-0.4542896881159182,-1.4973589687316213,-2.408555765963362,-3.123646117953699,-3.607719513714688,-3.8591444024574915,-3.9086933485535402
-1.0070570012174203,-0.41677540791057693,-0.01209454821956013,0.1694631914338254,0.10727522379729658,-0.16918794835280299,-0.5758027355933291,-0.9888565563727727,-1.286053787884938,-1.4067234877543737,-1.3933911209481034,-1.3728260938245151,-1.4761265126350402,-1.7469789026415743,-2.0985752444545502,-2.346916817968156,-2.300176553385813,-1.8517992351772687,-1.0266366100262514,0.036881033046152534,1.1451004467335846,2.1113893051437764,2.8039382979292236,3.176197073538016,3.2680504064579097,3.1624270897149245,2.914927923942376,2.5103785756476986,1.884306261061479,0.9896488527767247
-1.9418564175617155,-2.9547930170312897,-3.6458987805390857,-3.9908427102348845,-3.942859778257071,-3.5301339364941207,-2.835338037402246,-1.9526323241521595,-0.9692512585259393,0.023460932399256174,0.9145227923744265,1.5717811896577931,1.8563318199019574,1.6542369712044898,0.9276796677103581,-0.23576449845432446,-1.6262320698224673,-2.9970298374746864,-4.1853335748329545,-5.170210378662152,-6.020206774424153,-6.786433185748891,-7.43657687347264,-7.86623875469311,-7.949447957133156,-7.57996615411473,-6.694001283808165,-5.289937004976248,-3.4492258125280126,-1.3433041388909888
-2.5388687366690474,-2.988308309635614,-2.8870907466339304,-2.394359543951988,-1.6809040573575262,-0.9344502480259544,-0.2782748749577131,0.26155982147015,0.7085688940181133,1.0566898741920805,1.2340415010361676,1.1393474758164484,0.7137987450432934,-0.017356401076766392,-0.9661942706961848,-2.0394357739942186,-3.179062200502208,-4.361364391496801,-5.568591138449781,-6.756804504066126,-7.834128913823259,-8.660764831811305,-9.079640196350946,-8.969700670494458,-8.29483298666428,-7.120474194967301,-5.587452406361747,-3.8576170225353996,-2.065761034328932,-0.30843216499166093
-1.429286322528909,-1.960867830448091,-2.2680230309710256,-2.4483213619515123,-2.4392293621426453,-2.1704554086391696,-1.6560298969320357,-1.0062188237619818,-0.36386480060385057,0.16845621580418857,0.5527149238472809,0.7896394398933959,0.8801092706597196,0.8045177932504557,0.5247614333277792,0.00037162499465659415,-0.7882924442825603,-1.8176159452801284,-3.0121092738511464,-4.25850415228187,-5.434215872135538,-6.427814134728533,-7.135768761204174,-7.445580015672482,-7.237939183378728,-6.431551802035763,-5.050119198036815,-3.251782046577492,-1.278287441998137,0.6477058494196704
2.0504907242051673,1.184357493464426,0.3676374794907037,-0.3845451875538486,-1.0551831290522602,-1.6091370027302925,-1.9972669192675012,-2.1646331490886683,-2.065346906130963,-1.6917671820450957,-1.0978850066574153,-0.38310003335681503,0.3621003642974779,1.1026707667338644,1.8549254716795547,2.6343714694407376,3.396637858660326,4.016324398935474,4.322634988787042,4.172253612655395,3.5139736907207926,2.4103281476412937,1.0189466368349924,-0.4430225947524533,-1.7428342886410586,-2.6903311315796588,-3.1978960434213297,-3.3031342357649747,-3.126541824981243,-2.785001145984887
-3.139712387748598,-3.7816908352933307,-4.062291995806591,-3.9760695754849786,-3.499355527611769,-2.704249002903193,-1.7417605141251564,-0.7766464004111762,0.07035874694457833,0.7390762810903028,1.2114237073072336,1.4834699803540903,1.5425838556563183,1.3525894287403113,0.8562470144815469,0.0069668827260177535,-1.1819553107448273,-2.6090676734411935,-4.106357868827616,-5.498076038069434,-6.6547336593878805,-7.509925595958357,-8.040773226495881,-8.236474447931002,-8.07799280806049,-7.5373007994574115,-6.595075777381974,-5.270047390521661,-3.6417866365728218,-1.8439518912752864
-0.052689314177583935,0.23233382248033932,0.40322688906302534,0.5098837134671064,0.5122376006559082,0.3460997616281933,-0.009124641055343642,-0.5018480413306954,-1.0284766717712315,-1.476372132844276,-1.758568617547502,-1.8285785603127875,-1.682701129861442,-1.3592936665030433,-0.9325744913131481,-0.4925402699417857,-0.11553693796194398,0.15496753068964614,0.30686016345034794,0.3505538827914073,0.31923994340635176,0.27101898023528004,0.2729025892488448,0.3667577750367528,0.5419716468257234,0.7347229038802735,0.850179835128794,0.7945815660459159,0.5100145976423527,0.0025295299837622687
